BVP
-59.37
-53.42
-44.4
-33.17
-20.79
-8.33
3.4
13.85
22.76
30.04
35.71
39.81
42.43
43.77
44.12
43.9
43.5
43.22
43.1
43.05
42.9
42.58
42.25
42.21
42.79
44.12
46.13
48.48
50.7
52.4
53.37
53.68
53.56
53.36
53.32
53.52
53.88
54.25
54.59
54.88
55.15
55.33
55.32
55.03
54.55
54.19
54.22
54.59
54.64
53.37
49.88
44.23
37.73
32.59
30.78
32.82
37.27
41.02
40.15
31.22
12.44
-15.61
-49.89
-85.51
-117.88
-144.38
-165.8
-185.32
-206.43
-230.63
-256.52
-280.52
-297.91
-304.69
-297.46
-274.22
-234.68
-181.19
-119.74
-60.02
-12.81
15.15
23.55
19.49
12.59
10.5
16.04
27.47
40.7
52.06
61.33
69.35
77.79
85.42
87.91
79.74
56.72
17.71
-35.4
-96.79
-161.69
-216.81
-249.49
-255.46
-241.34
-217.07
-188.54
-165.25
-142.72
-118.75
-93.33
-68.43
-45.67
-23.6
0.08
27.89
61.07
101.09
147.8
201.65
261.62
324.18
383.2
430.86
459.34
462.67
440.14
395.32
336.83
275.12
219.26
174.88
143.38
122.81
109.37
99.76
90.73
79.73
64.19
41.71
11.0
-27.15
-69.68
-112.46
-151.65
-185.34
-213.03
-234.99
-251.53
-263.1
-270.73
-276.19
-281.41
-287.18
-292.67
-295.57
-293.34
-284.69
-270.14
-251.21
-228.97
-203.07
-171.8
-133.17
-86.43
-32.83
24.33
80.37
130.32
169.81
196.12
209.01
210.9
205.93
198.12
189.7
180.25
167.61
149.88
127.13
101.77
77.2
55.52
36.2
16.53
-6.14
-32.08
-58.28
-79.72
-91.87
-92.96
-84.25
-68.58
-48.25
-24.02
4.01
34.83
65.26
90.52
106.19
110.46
105.0
93.99
82.02
72.14
65.29
60.78
57.65
55.52
54.88
56.51
60.8
67.27
74.43
80.38
83.42
82.67
78.42
71.85
64.55
57.77
52.07
47.24
42.88
38.7
34.96
32.12
30.43
29.61
28.83
27.14
23.96
19.5
14.46
9.7
5.68
2.26
-1.1
-4.96
-9.55
-14.66
-19.79
-24.49
-28.53
-31.9
-34.7
-36.99
-38.77
-40.12
-41.32
-42.8
-44.93
-47.79
-50.83
-53.04
-53.12
-50.04
-43.48
-33.95
-22.69
-11.24
-0.88
7.69
14.35
19.36
23.09
25.8
27.74
29.17
30.33
31.42
32.41
33.07
33.08
32.26
30.69
28.75
26.93
25.59
24.91
24.73
24.76
24.61
23.89
22.29
19.71
16.26
12.22
8.02
3.99
0.4
-2.63
-5.07
-6.99
-8.57
-10.06
-11.85
-14.27
-17.53
-21.61
-26.35
-31.51
-36.94
-42.55
-48.3
-54.08
-59.74
-65.15
-70.14
-74.56
-78.11
-80.29
-80.43
-77.92
-72.49
-64.35
-54.22
-43.0
-31.54
-20.48
-10.2
-0.99
6.9
13.28
18.11
21.6
24.13
26.15
27.91
29.42
30.46
30.86
30.61
29.96
29.27
28.79
28.57
28.47
28.3
27.87
27.06
25.76
23.86
21.32
18.26
14.97
11.81
9.1
6.91
5.08
3.31
1.34
-0.98
-3.67
-6.71
-10.05
-13.59
-17.17
-20.64
-23.88
-26.89
-29.77
-32.68
-35.77
-39.2
-43.05
-47.21
-51.33
-54.65
-56.2
-55.14
-51.09
-44.33
-35.7
-26.23
-16.68
-7.43
1.48
10.06
18.12
25.19
30.74
34.33
35.89
35.71
34.34
32.44
30.58
29.13
28.25
27.89
27.85
27.86
27.62
26.93
25.74
24.13
22.28
20.44
18.75
17.23
15.78
14.27
12.59
10.71
8.64
6.35
3.74
0.72
-2.72
-6.49
-10.41
-14.36
-18.27
-22.15
-25.99
-29.75
-33.31
-36.63
-39.77
-43.09
-47.01
-51.91
-57.74
-63.9
-69.26
-72.51
-72.6
-69.03
-62.01
-52.3
-40.87
-28.64
-16.31
-4.39
6.72
16.61
24.92
31.41
36.07
39.14
41.02
42.15
42.81
43.12
43.03
42.49
41.47
40.12
38.73
37.62
37.0
36.88
37.01
37.05
36.72
35.86
34.5
32.67
30.42
27.71
24.54
20.99
17.24
13.55
10.11
6.92
3.86
0.71
-2.7
-6.41
-10.37
-14.48
-18.69
-23.02
-27.48
-32.07
-36.79
-41.68
-46.82
-52.25
-57.86
-63.26
-67.77
-70.57
-70.9
-68.37
-62.97
-55.13
-45.5
-34.86
-23.89
-13.16
-3.11
5.94
13.71
19.96
24.51
27.27
28.39
28.21
27.23
26.01
24.96
24.32
24.1
24.23
24.59
25.03
25.4
25.53
25.3
24.62
23.53
22.06
20.23
17.98
15.24
12.01
8.37
4.52
0.61
-3.28
-7.21
-11.23
-15.3
-19.3
-23.04
-26.48
-29.77
-33.32
-37.58
-42.78
-48.74
-54.79
-59.87
-62.91
-63.06
-59.98
-53.85
-45.25
-34.99
-23.94
-12.82
-2.25
7.34
15.71
22.72
28.35
32.67
35.7
37.48
38.14
37.92
37.17
36.26
35.47
34.88
34.38
33.77
32.86
31.59
30.0
28.18
26.22
24.13
21.94
19.63
17.18
14.57
11.76
8.63
5.1
1.11
-3.33
-8.1
-13.04
-17.93
-22.68
-27.31
-32.04
-37.2
-43.06
-49.61
-56.46
-62.75
-67.39
-69.34
-67.92
-62.95
-54.85
-44.39
-32.47
-19.94
-7.52
4.21
14.72
23.59
30.51
35.43
38.54
40.22
40.93
41.02
40.74
40.2
39.5
38.72
37.95
37.24
36.56
35.78
34.76
33.38
31.62
29.54
27.27
24.9
22.45
19.88
17.06
13.84
10.17
6.11
1.82
-2.51
-6.74
-10.82
-14.81
-18.8
-22.93
-27.39
-32.42
-38.19
-44.66
-51.33
-57.29
-61.3
-62.22
-59.44
-53.06
-43.85
-32.9
-21.26
-9.67
1.42
11.71
20.89
28.57
34.44
38.36
40.51
41.29
41.13
40.41
39.37
38.15
36.86
35.65
34.66
33.96
33.57
33.43
33.45
33.41
33.09
32.15
30.32
27.47
23.72
19.41
14.93
10.59
6.52
2.65
-1.16
-4.98
-8.84
-12.8
-16.94
-21.48
-26.61
-32.48
-39.08
-46.23
-53.51
-60.3
-65.75
-68.91
-68.96
-65.44
-58.41
-48.5
-36.7
-24.1
-11.64
0.04
10.56
19.78
27.66
34.2
39.48
43.56
46.55
48.56
49.73
50.27
50.36
50.14
49.68
49.0
48.07
46.91
45.67
44.53
43.68
43.16
42.82
42.28
41.14
39.12
36.21
32.7
29.02
25.57
22.52
19.77
17.06
14.14
10.84
7.19
3.35
-0.59
-4.54
-8.55
-12.63
-16.83
-21.14
-25.59
-30.31
-35.43
-41.09
-47.2
-53.24
-58.37
-61.48
-61.5
-57.85
-50.66
-40.8
-29.6
-18.43
-8.29
0.23
6.96
11.81
14.79
16.12
16.26
16.06
16.33
17.61
19.84
22.48
24.87
26.66
27.91
29.02
30.41
32.26
34.49
36.82
38.88
40.34
40.87
40.34
38.77
36.42
33.59
30.47
27.01
23.16
18.9
14.38
9.82
5.12
-0.15
-6.45
-13.69
-20.85
-26.35
-28.83
-28.34
-26.49
-25.69
-27.77
-32.99
-40.26
-48.16
-56.17
-64.68
-74.23
-84.21
-92.59
-97.01
-96.46
-92.53
-88.8
-88.79
-93.51
-100.45
-104.72
-101.77
-89.9
-71.06
-49.63
-29.74
-13.36
0.16
12.93
26.8
42.04
57.21
70.09
78.84
82.74
82.14
77.93
71.0
61.9
51.2
39.75
28.99
20.75
16.62
17.3
22.29
29.86
37.58
43.17
45.22
43.58
39.19
33.67
28.49
24.65
22.38
21.34
20.93
20.49
19.49
17.58
14.51
10.09
4.27
-2.79
-10.66
-18.58
-25.79
-31.85
-36.9
-41.69
-47.09
-53.57
-60.73
-67.28
-71.54
-72.1
-68.21
-59.91
-47.74
-32.59
-15.63
1.64
17.42
29.94
37.97
41.23
40.43
37.0
32.5
28.09
24.46
21.97
20.94
21.67
24.38
28.95
34.83
41.15
46.96
51.51
54.41
55.67
55.61
54.66
53.06
50.84
47.82
43.88
39.08
33.82
28.71
24.29
20.86
18.27
16.09
13.77
10.95
7.59
3.91
0.24
-3.19
-6.28
-9.09
-11.69
-14.13
-16.48
-18.81
-21.38
-24.49
-28.39
-32.96
-37.62
-41.33
-42.91
-41.44
-36.53
-28.55
-18.37
-7.13
4.16
14.76
24.3
32.58
39.51
45.07
49.37
52.67
55.34
57.76
60.16
62.66
65.33
68.29
71.79
76.03
81.04
86.57
92.13
97.2
101.43
104.78
107.4
109.4
110.72
111.02
109.89
106.93
101.87
94.52
84.65
71.95
56.15
37.25
15.83
-6.92
-29.37
-50.0
-67.89
-83.13
-96.58
-109.43
-122.46
-135.72
-148.46
-159.68
-168.6
-175.01
-179.12
-181.09
-180.62
-176.9
-169.03
-156.65
-140.36
-121.68
-102.58
-84.81
-69.42
-56.7
-46.35
-37.94
-31.13
-25.82
-22.01
-19.72
-18.86
-19.2
-20.42
-22.17
-24.07
-25.87
-27.39
-28.64
-29.65
-30.44
-30.96
-31.14
-30.96
-30.55
-30.13
-29.87
-29.79
-29.61
-28.94
-27.42
-24.91
-21.56
-17.74
-13.82
-10.0
-6.34
-2.86
0.32
2.98
4.84
5.74
5.68
4.74
3.09
0.89
-1.57
-3.86
-5.43
-5.81
-4.98
-3.42
-2.03
-1.66
-2.69
-4.74
-6.81
-7.65
-6.33
-2.57
3.19
9.96
16.55
21.92
25.42
26.94
26.82
25.66
24.1
22.65
21.55
20.86
20.56
20.57
20.81
21.15
21.31
20.91
19.55
16.84
12.53
6.55
-0.92
-9.38
-18.02
-25.75
-31.52
-34.59
-34.81
-32.6
-28.82
-24.44
-20.18
-16.44
-13.34
-10.9
-9.16
-8.23
-8.12
-8.72
-9.81
-11.13
-12.45
-13.59
-14.34
-14.4
-13.45
-11.2
-7.53
-2.53
3.57
10.44
17.69
24.78
31.08
35.93
38.88
39.91
39.38
37.94
36.14
34.3
32.39
30.29
27.85
25.04
21.92
18.55
15.02
11.48
8.25
5.76
4.35
4.13
4.84
5.93
6.75
6.76
5.64
3.32
-0.08
-4.27
-8.79
-13.19
-17.1
-20.4
-23.3
-26.27
-29.81
-34.18
-39.1
-43.75
-46.91
-47.39
-44.51
-38.35
-29.84
-20.34
-11.15
-3.07
3.75
9.61
14.84
19.52
23.35
25.89
26.84
26.18
24.24
21.51
18.42
15.25
12.11
9.07
6.29
4.11
2.98
3.33
5.31
8.53
12.14
14.99
16.08
14.96
11.91
7.83
3.85
0.91
-0.59
-0.85
-0.51
-0.37
-1.12
-3.15
-6.46
-10.74
-15.42
-19.81
-23.22
-25.08
-25.06
-23.1
-19.5
-14.88
-10.0
-5.54
-1.9
0.9
3.17
5.34
7.78
10.56
13.53
16.4
18.88
20.81
22.1
22.76
22.8
22.24
21.25
20.03
18.87
18.0
17.5
17.24
16.89
16.07
14.47
12.02
8.89
5.43
2.06
-0.9
-3.25
-4.98
-6.25
-7.29
-8.34
-9.64
-11.47
-14.04
-17.39
-21.32
-25.27
-28.36
-29.61
-28.27
-24.05
-17.24
-8.67
0.6
9.54
17.47
24.07
29.29
33.24
36.11
38.04
39.2
39.79
39.94
39.74
39.23
38.47
37.63
37.03
37.1
38.09
39.98
42.36
44.53
45.76
45.6
44.06
41.62
39.12
37.53
37.56
39.24
41.64
42.81
40.04
30.48
11.89
-16.61
-53.95
-97.13
-141.72
-182.75
-215.94
-238.52
-249.61
-249.93
-241.03
-224.53
-201.71
-173.69
-141.77
-107.8
-73.92
-41.93
-12.59
14.4
39.83
63.98
85.96
103.8
115.31
119.17
115.61
106.24
93.25
78.47
62.93
47.08
31.35
16.67
4.3
-4.59
-9.58
-11.25
-10.95
-10.21
-10.03
-10.52
-10.91
-9.97
-6.73
-0.99
6.43
13.99
19.96
23.18
23.39
21.31
18.2
15.36
13.73
13.68
15.13
17.71
21.0
24.61
28.18
31.41
34.1
36.03
37.05
37.09
36.19
34.55
32.57
30.66
29.1
27.91
26.83
25.48
23.57
21.03
18.05
15.02
12.32
10.23
8.8
7.99
7.63
7.56
7.61
7.62
7.45
7.03
6.33
5.41
4.41
3.4
2.46
1.51
0.46
-0.85
-2.57
-4.79
-7.53
-10.67
-13.91
-16.76
-18.66
-19.0
-17.42
-13.84
-8.56
-2.19
4.54
10.92
16.43
20.76
23.82
25.69
26.53
26.54
25.88
24.7
23.14
21.32
19.38
17.39
15.36
13.27
11.06
8.79
6.64
4.9
3.86
3.66
4.17
5.05
5.86
6.22
5.99
5.22
4.1
2.87
1.66
0.53
-0.58
-1.7
-2.91
-4.25
-5.85
-7.78
-10.07
-12.54
-14.72
-15.95
-15.52
-12.97
-8.32
-2.1
4.8
11.42
17.09
21.53
24.83
27.18
28.72
29.39
29.08
27.74
25.56
22.91
20.26
17.96
16.18
14.86
13.88
13.08
12.37
11.69
10.95
10.1
9.05
7.78
6.31
4.68
2.97
1.25
-0.44
-2.02
-3.4
-4.47
-5.16
-5.51
-5.6
-5.62
-5.77
-6.21
-7.08
-8.43
-10.25
-12.44
-14.83
-17.11
-18.8
-19.35
-18.27
-15.34
-10.73
-5.01
1.02
6.6
11.24
14.82
17.48
19.42
20.75
21.42
21.29
20.28
18.48
16.16
13.66
11.27
9.17
7.41
6.02
5.07
4.72
5.08
6.13
7.67
9.35
10.77
11.67
11.93
11.62
10.84
9.68
8.19
6.47
4.7
3.12
1.95
1.23
0.79
0.32
-0.45
-1.61
-3.08
-4.63
-6.06
-7.27
-8.3
-9.28
-10.34
-11.58
-13.03
-14.65
-16.31
-17.76
-18.65
-18.58
-17.24
-14.56
-10.72
-6.15
-1.4
3.05
6.87
9.96
12.3
13.94
14.9
15.16
14.74
13.75
12.4
10.98
9.73
8.78
8.16
7.78
7.56
7.48
7.52
7.66
7.84
7.97
7.96
7.8
7.55
7.32
7.18
7.15
7.16
7.08
6.75
6.1
5.09
3.82
2.46
1.18
0.1
-0.76
-1.47
-2.18
-2.97
-3.9
-4.98
-6.2
-7.56
-9.02
-10.46
-11.7
-12.61
-13.24
-13.81
-14.67
-16.03
-17.79
-19.53
-20.63
-20.57
-19.14
-16.46
-12.89
-8.86
-4.72
-0.78
2.73
5.63
7.78
9.16
9.86
10.05
9.88
9.45
8.82
8.04
7.21
6.46
5.91
5.6
5.5
5.52
5.61
5.77
6.06
6.54
7.18
7.92
8.6
9.1
9.36
9.35
9.07
8.53
7.69
6.58
5.3
4.06
3.07
2.48
2.29
2.28
2.17
1.7
0.77
-0.65
-2.42
-4.41
-6.46
-8.5
-10.48
-12.37
-14.23
-16.11
-18.05
-20.02
-21.83
-23.22
-23.83
-23.39
-21.71
-18.83
-14.93
-10.41
-5.78
-1.55
1.89
4.37
5.97
6.92
7.47
7.78
7.89
7.75
7.34
6.68
5.88
5.05
4.3
3.72
3.42
3.46
3.85
4.51
5.22
5.78
6.03
5.95
5.64
5.22
4.78
4.37
4.0
3.7
3.47
3.33
3.22
3.07
2.81
2.42
1.92
1.35
0.66
-0.24
-1.52
-3.27
-5.46
-7.94
-10.46
-12.78
-14.73
-16.3
-17.6
-18.82
-20.13
-21.57
-23.04
-24.29
-24.98
-24.85
-23.73
-21.63
-18.73
-15.29
-11.63
-8.03
-4.67
-1.57
1.4
4.44
7.67
11.07
14.37
17.24
19.35
20.58
21.04
20.95
20.57
20.0
19.25
18.22
16.88
15.32
13.74
12.34
11.27
10.52
9.93
9.3
8.47
7.43
6.29
5.24
4.4
3.77
3.21
2.56
1.7
0.64
-0.54
-1.67
-2.66
-3.5
-4.26
-5.08
-6.07
-7.3
-8.8
-10.59
-12.66
-14.96
-17.38
-19.7
-21.68
-23.05
-23.68
-23.52
-22.63
-20.97
-18.45
-14.92
-10.34
-4.95
0.67
5.76
9.66
12.0
12.86
12.62
11.71
10.47
9.08
7.67
6.43
5.65
5.58
6.32
7.66
9.18
10.39
10.94
10.73
9.97
8.98
8.12
7.57
7.36
7.3
7.12
6.54
5.36
3.56
1.28
-1.25
-3.82
-6.31
-8.72
-11.05
-13.34
-15.52
-17.52
-19.31
-20.89
-22.31
-23.56
-24.49
-24.81
-24.2
-22.49
-19.73
-16.19
-12.24
-8.2
-4.25
-0.43
3.18
6.45
9.17
11.11
12.15
12.35
11.91
11.17
10.38
9.74
9.34
9.16
9.18
9.36
9.68
10.08
10.5
10.81
10.91
10.67
10.07
9.15
8.01
6.8
5.61
4.47
3.36
2.21
1.0
-0.27
-1.57
-2.87
-4.16
-5.44
-6.67
-7.84
-8.9
-9.88
-10.87
-12.03
-13.54
-15.44
-17.62
-19.79
-21.52
-22.41
-22.12
-20.55
-17.78
-14.12
-9.96
-5.71
-1.71
1.82
4.82
7.31
9.38
11.07
12.42
13.39
13.94
14.04
13.69
12.93
11.89
10.74
9.66
8.83
8.35
8.23
8.38
8.65
8.88
8.91
8.67
8.16
7.42
6.54
5.6
4.7
3.88
3.14
2.39
1.51
0.4
-1.02
-2.76
-4.72
-6.78
-8.78
-10.61
-12.23
-13.64
-14.96
-16.31
-17.71
-19.08
-20.13
-20.49
-19.84
-18.04
-15.19
-11.62
-7.72
-3.83
-0.21
3.0
5.73
7.96
9.65
10.78
11.34
11.35
10.84
9.95
8.88
7.89
7.24
7.07
7.33
7.81
8.27
8.51
8.5
8.33
8.14
8.0
7.84
7.51
6.86
5.83
4.51
3.07
1.71
0.56
-0.4
-1.23
-2.01
-2.76
-3.46
-4.04
-4.48
-4.82
-5.17
-5.6
-6.17
-6.88
-7.66
-8.48
-9.38
-10.48
-11.87
-13.54
-15.21
-16.45
-16.79
-15.95
-13.94
-11.03
-7.63
-4.09
-0.56
2.87
6.16
9.16
11.64
13.36
14.2
14.23
13.68
12.8
11.83
10.91
10.11
9.44
8.93
8.54
8.25
7.98
7.63
7.07
6.25
5.21
4.09
3.06
2.29
1.82
1.6
1.46
1.26
0.92
0.45
-0.05
-0.45
-0.66
-0.66
-0.48
-0.23
-0.04
-0.04
-0.36
-1.02
-1.95
-3.01
-4.03
-4.95
-5.85
-6.84
-8.09
-9.6
-11.25
-12.81
-14.01
-14.67
-14.71
-14.1
-12.82
-10.88
-8.33
-5.36
-2.27
0.57
2.87
4.49
5.49
6.05
6.35
6.5
6.52
6.34
5.97
5.49
5.05
4.81
4.86
5.17
5.65
6.21
6.78
7.31
7.78
8.15
8.36
8.38
8.2
7.83
7.32
6.69
5.94
5.1
4.19
3.25
2.33
1.42
0.49
-0.52
-1.61
-2.73
-3.77
-4.58
-5.1
-5.37
-5.51
-5.7
-6.14
-6.94
-8.19
-9.91
-12.05
-14.39
-16.52
-17.91
-18.02
-16.6
-13.75
-9.98
-6.01
-2.5
0.14
1.84
2.85
3.51
4.09
4.73
5.45
6.19
6.87
7.46
7.9
8.17
8.2
8.03
7.73
7.48
7.44
7.69
8.14
8.56
8.68
8.33
7.5
6.41
5.35
4.47
3.77
2.99
1.81
-0.04
-2.54
-5.43
-8.23
-10.5
-11.94
-12.49
-12.34
-11.78
-11.11
-10.49
-10.04
-9.81
-9.86
-10.22
-10.83
-11.49
-11.88
-11.66
-10.59
-8.65
-6.04
-3.07
-0.06
2.76
5.25
7.34
8.97
10.07
10.61
10.64
10.28
9.68
9.01
8.39
7.9
7.58
7.4
7.28
7.08
6.71
6.13
5.4
4.67
4.08
3.72
3.59
3.6
3.62
3.52
3.26
2.81
2.28
1.74
1.25
0.8
0.28
-0.43
-1.37
-2.49
-3.6
-4.5
-5.11
-5.54
-5.95
-6.56
-7.42
-8.46
-9.55
-10.6
-11.62
-12.65
-13.68
-14.52
-14.89
-14.49
-13.21
-11.17
-8.65
-5.96
-3.34
-0.87
1.41
3.49
5.25
6.54
7.23
7.31
6.88
6.13
5.28
4.51
3.93
3.56
3.39
3.33
3.32
3.32
3.35
3.46
3.71
4.1
4.55
4.92
5.09
4.99
4.66
4.15
3.56
2.93
2.24
1.49
0.63
-0.3
-1.22
-2.0
-2.56
-2.86
-2.98
-3.07
-3.3
-3.81
-4.67
-5.86
-7.28
-8.8
-10.18
-11.19
-11.55
-11.05
-9.62
-7.39
-4.66
-1.84
0.63
2.39
3.21
3.04
2.06
0.67
-0.58
-1.18
-0.8
0.6
2.73
5.12
7.24
8.73
9.43
9.38
8.7
7.51
5.89
3.98
1.92
-0.11
-2.01
-3.85
-5.89
-8.38
-11.32
-14.41
-16.99
-18.35
-18.04
-16.09
-13.0
-9.5
-6.24
-3.6
-1.67
-0.32
0.57
1.05
1.01
0.21
-1.55
-4.35
-8.01
-12.04
-15.8
-18.66
-20.19
-20.35
-19.37
-17.65
-15.68
-13.89
-12.67
-12.17
-12.13
-11.61
-9.14
-3.23
6.88
20.45
35.28
48.28
56.74
59.29
56.38
49.84
41.88
34.23
27.7
22.39
18.08
14.61
11.94
10.01
8.57
7.31
6.08
4.95
4.33
4.65
6.1
8.5
11.29
13.8
15.44
15.99
15.6
14.71
13.8
13.17
12.67
11.79
9.84
6.3
1.17
-4.84
-10.49
-14.41
-15.61
-13.97
-10.27
-6.02
-2.84
-2.01
-3.98
-8.38
-14.21
-20.3
-25.6
-29.46
-31.59
-31.98
-30.75
-28.17
-24.63
-20.71
-17.11
-14.47
-13.15
-13.05
-13.67
-14.28
-14.28
-13.39
-11.8
-9.97
-8.36
-7.18
-6.36
-5.64
-4.8
-3.84
-3.01
-2.62
-2.87
-3.65
-4.56
-5.04
-4.6
-3.06
-0.6
2.28
4.91
6.61
6.93
5.7
3.12
-0.23
-3.45
-5.47
-5.38
-2.73
2.16
8.23
13.94
17.96
19.66
19.36
18.09
16.92
16.38
16.14
15.27
12.85
8.57
2.92
-3.04
-8.12
-11.52
-12.95
-12.5
-10.54
-7.56
-4.25
-1.47
-0.08
-0.59
-2.91
-6.14
-8.96
-10.05
-8.69
-4.99
0.22
5.73
10.36
13.28
14.05
12.7
9.64
5.66
1.78
-0.97
-1.94
-1.13
0.73
2.43
2.7
0.74
-3.43
-9.01
-14.62
-18.82
-20.49
-19.15
-15.07
-9.21
-2.93
2.32
5.46
6.09
4.56
1.77
-1.2
-3.51
-4.8
-5.16
-4.94
-4.47
-3.91
-3.23
-2.29
-1.07
0.32
1.63
2.6
3.1
3.18
3.1
3.17
3.6
4.38
5.26
5.88
5.95
5.36
4.24
2.82
1.27
-0.4
-2.27
-4.47
-6.99
-9.72
-12.47
-15.04
-17.3
-19.12
-20.28
-20.53
-19.62
-17.48
-14.3
-10.51
-6.61
-2.95
0.38
3.53
6.73
10.06
13.41
16.49
18.98
20.71
21.66
21.91
21.56
20.65
19.2
17.31
15.24
13.34
11.99
11.4
11.49
12.01
12.61
13.04
13.15
12.93
12.38
11.51
10.31
8.84
7.27
5.78
4.54
3.58
2.72
1.68
0.22
-1.76
-4.11
-6.5
-8.57
-10.0
-10.63
-10.41
-9.44
-7.8
-5.57
-2.8
0.54
4.44
8.91
13.84
19.03
24.11
28.71
32.53
35.44
37.48
38.8
39.56
39.76
39.3
37.96
35.5
31.66
26.19
18.93
9.91
-0.41
-11.08
-20.72
-27.89
-31.57
-31.65
-28.92
-24.85
-21.02
-18.46
-17.4
-17.33
-17.47
-17.24
-16.52
-15.66
-15.11
-15.15
-15.71
-16.45
-17.04
-17.39
-17.62
-18.02
-18.78
-19.86
-20.95
-21.56
-21.16
-19.35
-15.95
-11.18
-5.57
0.12
5.06
8.63
10.56
10.89
9.93
8.13
5.99
4.05
2.84
2.75
3.83
5.65
7.32
7.88
6.76
4.19
1.27
-0.57
-0.26
2.25
5.88
8.86
9.64
7.61
3.39
-1.58
-5.77
-8.22
-8.84
-8.18
-7.02
-5.95
-5.25
-4.96
-5.05
-5.5
-6.17
-6.76
-6.73
-5.59
-3.03
0.77
5.2
9.4
12.62
14.45
14.95
14.48
13.4
11.88
9.85
7.14
3.7
-0.24
-4.16
-7.38
-9.28
-9.4
-7.61
-4.12
0.49
5.44
9.91
13.32
15.5
16.68
17.29
17.69
17.92
17.64
16.29
13.29
8.29
1.29
-7.33
-16.84
-26.26
-34.56
-40.8
-44.33
-44.95
-42.88
-38.75
-33.39
-27.66
-22.24
-17.55
-13.69
-10.58
-8.04
-6.01
-4.56
-3.81
-3.86
-4.58
-5.64
-6.56
-6.94
-6.58
-5.65
-4.62
-4.14
-4.76
-6.7
-9.69
-12.93
-15.32
-15.79
-13.72
-9.08
-2.53
4.88
11.91
17.36
20.21
19.72
15.58
8.14
-1.59
-12.02
-21.43
-28.42
-32.25
-32.99
-31.27
-28.01
-24.06
-19.99
-16.14
-12.62
-9.45
-6.62
-4.06
-1.78
0.19
1.68
2.47
2.3
1.0
-1.41
-4.64
-8.12
-11.17
-13.11
-13.54
-12.39
-9.93
-6.65
-3.12
0.08
2.47
3.65
3.47
2.04
-0.22
-2.67
-4.65
-5.75
-5.88
-5.33
-4.54
-3.94
-3.8
-4.14
-4.79
-5.48
-5.9
-5.77
-4.87
-3.08
-0.36
3.16
7.24
11.49
15.48
18.8
21.19
22.61
23.19
23.08
22.39
21.15
19.35
17.08
14.57
12.14
10.1
8.63
7.8
7.56
7.86
8.65
9.89
11.44
13.07
14.45
15.34
15.66
15.58
15.39
15.34
15.49
15.67
15.62
15.09
14.01
12.45
10.57
8.57
6.6
4.96
4.1
4.67
7.26
12.07
18.74
26.3
33.5
39.07
42.11
42.24
39.62
34.81
28.5
21.37
14.12
7.3
1.28
-3.68
-7.38
-9.53
-9.77
-7.7
-3.14
3.86
12.65
21.74
29.13
32.93
32.03
26.53
17.62
7.27
-2.16
-8.87
-12.5
-14.1
-15.59
-18.95
-25.76
-36.87
-52.13
-69.86
-87.69
-103.88
-117.92
-130.22
-141.45
-151.8
-160.43
-165.13
-162.02
-147.13
-118.4
-76.62
-25.15
31.18
87.14
137.13
172.05
185.25
177.62
156.49
130.44
105.24
83.52
65.59
50.71
38.18
28.63
23.73
25.08
33.04
46.22
61.79
76.23
86.04
88.68
83.09
68.8
44.68
10.95
-30.07
-73.32
-111.84
-138.72
-149.39
-142.97
-122.75
-94.9
-65.76
-39.34
-15.85
8.05
37.42
76.63
127.05
185.46
244.49
295.22
330.3
346.7
346.31
334.56
317.95
302.16
291.02
286.61
289.36
298.11
309.98
320.52
324.59
317.98
298.94
268.88
231.79
192.56
155.16
121.76
92.61
66.83
43.21
20.78
-1.13
-22.89
-44.84
-67.52
-91.66
-118.13
-147.87
-181.77
-220.48
-263.99
-310.99
-358.61
-402.71
-438.88
-463.84
-476.34
-477.35
-469.38
-455.35
-437.5
-416.88
-393.7
-368.08
-340.93
-314.32
-291.1
-274.06
-264.76
-262.72
-265.13
-267.57
-265.4
-255.63
-237.92
-214.36
-188.19
-162.0
-136.61
-111.29
-84.94
-57.52
-30.55
-6.53
12.58
26.58
37.2
46.95
57.57
68.98
79.68
88.12
94.23
100.08
108.8
122.65
141.26
161.29
177.81
186.65
186.44
179.01
168.2
157.68
149.21
142.13
134.51
124.74
112.78
100.18
88.97
80.5
74.63
69.98
64.89
58.36
50.51
42.35
35.12
29.46
25.16
21.23
16.49
10.17
2.34
-6.09
-13.81
-19.72
-23.39
-25.24
-26.26
-27.4
-29.14
-31.18
-32.67
-32.65
-30.48
-26.17
-20.29
-13.74
-7.38
-1.81
2.66
5.92
7.97
8.81
8.45
7.02
4.75
2.01
-0.83
-3.46
-5.77
-7.74
-9.45
-10.97
-12.28
-13.31
-14.0
-14.34
-14.43
-14.45
-14.58
-14.95
-15.59
-16.46
-17.52
-18.81
-20.43
-22.48
-25.0
-27.89
-30.85
-33.51
-35.39
-36.03
-35.01
-32.09
-27.23
-20.71
-13.1
-5.15
2.42
9.08
14.52
18.74
21.84
23.97
25.25
25.76
25.65
25.1
24.39
23.74
23.28
22.98
22.66
22.09
21.07
19.55
17.62
15.51
13.43
11.56
9.91
8.38
6.77
4.91
2.67
0.06
-2.86
-5.95
-9.1
-12.21
-15.34
-18.57
-22.0
-25.62
-29.23
-32.37
-34.38
-34.61
-32.61
-28.24
-21.78
-13.81
-5.1
3.62
11.72
18.75
24.39
28.5
31.04
32.15
32.07
31.18
29.84
28.35
26.84
25.33
23.73
21.96
20.07
18.2
16.51
15.11
13.94
12.84
11.64
10.22
8.55
6.68
4.68
2.6
0.41
-1.92
-4.47
-7.37
-10.77
-14.77
-19.34
-24.29
-29.2
-33.53
-36.71
-38.2
-37.63
-34.77
-29.61
-22.42
-13.69
-4.15
5.41
14.32
22.1
28.52
33.54
37.18
39.51
40.62
40.67
39.92
38.66
37.16
35.58
33.98
32.38
30.88
29.7
29.12
29.39
30.56
32.39
34.41
36.16
37.33
37.98
38.44
39.13
40.34
42.06
44.02
45.83
47.2
48.1
48.76
49.53
50.69
52.27
54.18
56.35
59.0
62.73
68.47
77.1
89.12
104.56
122.96
143.67
166.03
188.98
210.53
227.35
235.08
229.65
208.82
173.28
126.45
73.17
17.89
-36.45
-88.4
-137.15
-181.42
-219.18
-248.2
-267.14
-276.49
-278.62
-276.88
-274.04
-271.0
-266.3
-257.01
-240.58
-216.69
-187.82
-158.28
-131.62
-108.81
-88.0
-66.61
-44.1
-23.33
-9.18
-5.37
-11.53
-22.98
-33.4
-38.58
-38.52
-36.53
-36.06
-37.59
-38.02
-32.67
-18.5
3.75
29.93
54.78
74.67
88.95
99.56
109.17
119.52
130.52
140.59
147.49
149.55
146.31
138.72
128.65
117.93
107.57
97.35
86.22
73.41
59.33
45.84
35.4
29.63
28.15
28.47
27.23
22.04
12.86
1.98
-7.42
-13.3
-15.98
-17.81
-21.66
-28.95
-38.83
-48.53
-54.98
-56.3
-52.56
-45.51
-37.46
-30.15
-24.19
-19.2
-14.3
-8.71
-1.94
6.1
15.25
25.05
34.71
43.29
49.92
54.3
56.9
58.88
61.54
65.65
71.03
76.57
80.8
82.57
81.56
78.18
73.13
66.93
59.8
51.9
43.62
35.7
28.82
23.05
17.74
11.78
4.52
-3.69
-11.43
-17.08
-19.89
-20.6
-20.91
-22.34
-25.01
-27.45
-27.52
-23.91
-17.08
-9.01
-2.03
2.64
5.38
7.66
10.93
15.64
21.14
26.14
29.49
30.55
29.06
24.92
18.17
9.32
-0.35
-8.96
-14.78
-17.14
-17.08
-17.16
-20.45
-29.28
-44.27
-63.99
-85.57
-105.75
-121.91
-132.63
-137.63
-137.46
-133.03
-125.5
-116.13
-106.23
-97.02
-89.34
-83.39
-78.8
-74.84
-70.93
-66.94
-63.21
-60.19
-57.98
-56.15
-53.77
-49.91
-44.03
-36.24
-27.18
-17.84
-9.21
-2.05
3.23
6.49
7.74
7.12
4.76
0.85
-4.56
-11.59
-20.47
-31.28
-43.6
-56.3
-67.65
-75.86
-79.92
-80.16
-78.19
-76.14
-75.53
-76.3
-76.54
-73.11
-63.05
-44.9
-19.59
9.8
39.16
64.92
85.44
101.41
115.15
129.06
144.17
159.5
172.57
180.69
182.23
177.17
166.66
152.27
135.67
118.77
103.95
93.56
88.46
86.52
82.1
67.72
37.45
-9.54
-67.64
-126.72
-176.31
-209.78
-226.15
-228.94
-223.11
-212.33
-198.15
-181.0
-161.69
-141.97
-123.64
-107.1
-90.74
-71.43
-46.14
-13.6
24.86
65.44
102.83
131.44
146.78
146.47
130.68
101.72
63.22
19.31
-25.83
-68.1
-103.68
-129.48
-143.95
-147.4
-141.58
-128.54
-109.74
-86.11
-59.05
-31.48
-7.79
7.91
14.12
13.38
11.39
14.28
25.49
44.02
64.99
82.21
91.23
91.41
85.87
79.85
78.08
82.81
93.32
106.81
120.24
131.9
141.83
151.09
160.44
169.56
177.11
181.57
182.05
178.34
170.28
157.08
137.29
109.73
74.84
35.42
-3.87
-37.87
-62.76
-76.94
-80.8
-75.7
-63.2
-44.91
-23.19
-1.66
14.98
22.3
17.72
1.46
-23.82
-54.68
-88.49
-124.02
-160.86
-197.9
-232.3
-259.55
-274.58
-273.4
-254.34
-218.43
-169.14
-111.54
-51.65
4.44
51.5
86.39
109.0
122.63
133.16
146.94
168.14
197.18
230.64
262.88
288.22
302.91
305.9
298.81
285.24
269.95
257.89
252.88
256.24
265.88
276.63
282.07
277.03
259.77
232.3
199.14
164.93
132.61
102.87
75.08
48.52
23.16
-0.31
-21.07
-39.19
-55.6
-71.79
-89.35
-109.65
-133.43
-160.57
-190.06
-220.21
-249.02
-274.16
-292.94
-302.75
-302.08
-291.64
-274.75
-256.85
-243.84
-240.27
-246.95
-260.52
-275.05
-285.09
-288.06
-284.76
-278.09
-271.18
-267.33
-267.65
-270.72
-273.61
-273.5
-268.47
-257.21
-238.67
-212.04
-180.02
-145.31
-108.87
-70.63
-31.6
5.94
40.06
70.5
98.67
121.86
137.85
147.39
153.6
158.83
163.64
167.33
168.01
162.59
141.21
96.21
27.63
-56.88
-147.31
-234.6
-311.0
-370.48
-372.64
-299.28
-171.39
-34.55
76.53
150.65
191.71
208.7
209.8
202.0
183.4
153.3
116.97
83.52
59.44
45.42
39.52
37.44
36.0
29.83
17.34
2.03
-10.15
-15.58
-14.3
-8.21
0.17
8.68
12.25
6.93
-7.62
-28.19
-50.68
-71.74
-89.15
-101.53
-107.34
-105.87
-95.63
-74.87
-43.55
-5.33
33.26
65.88
89.17
103.9
113.0
119.51
124.81
128.3
128.46
124.63
118.15
111.77
108.24
108.91
113.29
119.96
127.87
136.94
147.74
160.28
172.89
182.2
184.13
175.62
156.18
128.51
97.74
69.69
48.96
37.53
34.7
37.91
44.17
51.35
58.45
65.27
71.56
76.35
77.98
74.92
66.61
53.88
38.67
23.15
8.96
-3.01
-12.16
-17.84
-19.3
-16.52
-10.78
-4.71
-1.2
-1.94
-6.36
-11.95
-15.68
-15.72
-12.34
-7.51
-3.48
-1.46
-1.19
-1.66
-2.13
-2.74
-4.42
-8.03
-13.73
-20.88
-28.46
-35.7
-42.23
-48.01
-53.05
-57.18
-59.97
-60.82
-58.98
-53.73
-44.71
-32.14
-17.11
-1.31
13.4
25.64
34.79
40.92
44.22
44.64
41.96
36.22
28.35
20.12
13.6
10.04
9.27
9.9
10.19
9.21
7.21
5.37
4.84
5.97
8.14
10.29
11.66
12.26
12.75
13.75
15.29
16.53
16.18
13.17
7.32
-0.57
-9.05
-16.84
-23.35
-28.84
-33.95
-38.92
-43.14
-45.33
-44.1
-38.86
-30.18
-19.53
-8.58
1.47
10.28
18.08
25.17
31.43
36.27
38.88
38.72
35.82
30.9
25.2
20.0
16.22
14.15
13.47
13.54
13.87
14.27
14.93
15.92
16.9
17.03
15.39
11.51
5.82
-0.44
-5.8
-9.23
-10.56
-10.47
-9.99
-10.04
-11.0
-12.77
-14.93
-17.14
-19.27
-21.53
-24.27
-27.88
-32.56
-38.14
-44.03
-49.22
-52.5
-52.87
-49.83
-43.6
-35.01
-25.21
-15.25
-5.87
2.55
9.9
16.17
21.35
25.49
28.69
31.15
32.99
34.23
34.69
34.14
32.53
30.16
27.67
25.96
25.81
27.59
31.1
35.66
40.34
44.25
46.77
47.59
46.72
44.4
41.04
37.19
33.42
30.16
27.5
24.97
21.67
16.57
9.1
-0.48
-10.96
-20.56
-27.65
-31.54
-32.66
-32.32
-32.08
-33.01
-35.52
-39.45
-44.45
-50.19
-56.28
-61.94
-65.91
-66.73
-63.38
-55.91
-45.64
-34.68
-25.03
-17.86
-13.19
-10.32
-8.49
-7.37
-6.99
-7.35
-8.04
-8.3
-7.4
-5.23
-2.57
-0.63
-0.38
-1.88
-4.14
-5.77
-5.79
-4.21
-2.12
-1.01
-2.06
-5.45
-10.31
-15.1
-18.4
-19.5
-18.67
-16.98
-15.71
-15.7
-16.95
-18.69
-19.8
-19.35
-16.92
-12.55
-6.57
0.56
8.26
15.75
22.1
26.46
28.44
28.3
26.9
25.29
24.41
24.83
26.62
29.37
32.17
33.84
33.35
30.25
25.0
18.78
12.92
8.14
4.35
0.91
-2.71
-6.44
-9.65
-11.62
-12.03
-11.31
-10.27
-9.68
-9.84
-10.38
-10.6
-9.78
-7.54
-3.94
0.56
5.2
9.22
11.85
12.56
11.1
7.56
2.48
-3.17
-8.1
-11.07
-11.35
-9.08
-5.22
-1.27
1.48
2.35
1.32
-1.25
-5.01
-9.75
-15.24
-20.95
-26.0
-29.26
-29.82
-27.47
-22.77
-16.83
-10.87
-5.79
-1.93
0.89
3.19
5.5
8.15
11.08
13.84
15.74
16.15
14.82
12.08
8.74
5.78
3.98
3.69
4.83
7.06
9.99
13.3
16.73
19.99
22.76
24.73
25.6
25.13
23.1
19.38
13.98
7.11
-0.73
-8.97
-17.15
-25.1
-32.9
-40.66
-48.3
-55.36
-61.35
-65.97
-69.53
-72.72
-76.25
-80.3
-84.3
-87.16
-87.71
-85.3
-79.86
-71.77
-61.52
-49.58
-36.56
-23.39
-11.3
-1.43
5.77
10.92
15.44
20.91
28.14
36.8
45.45
52.4
56.51
57.83
57.48
57.13
58.07
60.72
64.52
68.39
71.44
73.36
74.51
75.41
76.21
76.42
75.14
71.63
65.84
58.43
50.38
42.39
34.47
25.97
16.07
4.29
-9.25
-23.89
-38.75
-53.07
-66.33
-78.23
-88.52
-96.9
-102.93
-106.14
-106.17
-102.9
-96.51
-87.5
-76.56
-64.52
-52.15
-40.09
-28.82
-18.65
-9.77
-2.31
3.76
8.57
12.36
15.36
17.74
19.55
20.77
21.41
21.67
21.96
22.76
24.39
26.82
29.61
32.02
33.35
33.13
31.28
28.05
23.92
19.36
14.8
10.53
6.71
3.36
0.42
-2.27
-4.84
-7.43
-10.15
-13.22
-16.92
-21.5
-26.99
-32.98
-38.57
-42.58
-43.92
-42.03
-37.06
-29.78
-21.27
-12.42
-3.7
4.83
13.25
21.42
28.94
35.15
39.53
41.88
42.48
41.98
41.1
40.36
39.99
39.87
39.77
39.45
38.8
37.88
36.83
35.83
34.91
33.97
32.78
31.08
28.64
25.41
21.44
16.85
11.79
6.38
0.76
-4.9
-10.41
-15.6
-20.47
-25.19
-30.05
-35.36
-41.26
-47.65
-54.11
-59.96
-64.32
-66.34
-65.47
-61.65
-55.34
-47.41
-38.82
-30.31
-22.21
-14.57
-7.35
-0.65
5.31
10.27
14.11
16.86
18.68
19.72
20.1
19.96
19.48
18.96
18.63
18.6
18.75
18.86
18.74
18.37
17.93
17.66
17.74
18.15
18.72
19.17
19.2
18.57
17.17
15.07
12.48
9.66
6.86
4.21
1.65
-0.99
-3.9
-7.11
-10.52
-13.89
-17.07
-20.02
-22.92
-25.88
-28.85
-31.35
-32.52
-31.35
-27.09
-19.55
-9.18
3.02
15.81
28.01
38.73
47.43
53.95
58.43
61.32
63.19
64.67
66.19
67.74
69.0
69.45
68.77
67.04
64.83
63.0
62.29
62.89
64.15
65.15
65.05
63.44
60.31
56.07
51.35
46.9
43.44
40.91
38.98
36.63
32.29
24.23
11.66
-4.41
-21.11
-35.01
-44.76
-51.37
-58.49
-70.78
-91.86
-121.94
-157.21
-191.1
-216.87
-231.15
-233.36
-225.46
-210.13
-189.81
-166.17
-140.37
-114.05
-83.8
-51.48
-20.32
7.65
32.96
56.24
76.41
90.95
98.09
98.91
96.69
97.33
102.44
109.98
114.36
109.55
92.87
67.02
39.02
16.06
2.9
-0.45
3.87
11.26
17.04
18.94
17.74
15.93
15.27
16.07
16.92
16.04
12.03
4.77
-4.15
-12.3
-17.51
-19.16
-18.03
-15.9
-14.47
-14.89
-17.51
-21.42
-25.11
-26.93
-25.91
-21.98
-15.76
-7.98
0.72
9.51
17.86
25.22
31.34
36.06
39.11
40.3
39.59
37.07
32.33
25.17
15.33
3.01
-11.59
-28.77
-48.94
-72.32
-94.36
-109.52
-113.97
-108.97
-98.85
-88.14
-79.91
-74.9
-72.38
-70.98
-72.07
-74.55
-77.58
-79.78
-79.88
-77.45
-72.3
-64.81
-55.78
-46.41
-35.99
-24.18
-10.14
6.85
26.84
50.18
76.92
106.02
135.06
161.45
182.97
199.19
211.53
214.41
205.43
186.64
162.98
138.91
116.87
97.3
79.92
64.02
50.94
39.25
28.33
18.26
9.5
2.77
-1.46
-3.17
-2.9
-1.98
-0.77
1.04
3.33
5.39
6.34
5.55
3.05
-0.55
-4.37
-7.38
-8.84
-9.08
-9.21
-10.41
-13.33
-17.84
-23.17
-28.37
-32.5
-34.93
-35.8
-35.95
-36.41
-37.86
-40.29
-42.88
-44.36
-43.44
-39.39
-32.45
-23.64
-14.26
-5.33
2.68
9.65
15.51
19.97
22.73
23.73
23.45
22.92
23.17
24.72
27.2
29.52
30.58
29.94
28.15
26.51
26.29
27.93
30.67
32.82
32.57
28.95
22.39
14.5
7.46
2.94
1.38
1.93
2.93
2.71
0.21
-4.99
-12.81
-23.11
-35.6
-49.61
-63.69
-75.89
-84.42
-88.61
-89.41
-88.9
-89.29
-91.5
-94.62
-96.35
-94.24
-87.1
-75.69
-62.47
-50.54
-42.47
-39.43
-40.89
-44.96
-49.15
-51.3
-50.49
-47.46
-44.18
-42.81
-44.45
-48.39
-52.52
-54.35
-52.41
-46.92
-39.6
-32.68
-27.87
-25.88
-26.45
-28.95
-32.69
-37.02
-41.23
-44.61
-46.62
-47.25
-46.9
-46.02
-44.69
-42.6
-39.45
-35.47
-31.6
-28.98
-28.03
-27.84
-26.32
-21.23
-11.49
2.23
17.97
33.84
49.08
64.29
80.59
98.46
117.0
134.16
147.78
156.55
160.42
160.37
157.69
153.54
148.77
143.88
139.03
133.93
127.89
120.02
109.78
97.38
83.91
70.84
59.28
49.57
41.23
33.47
25.82
18.36
11.53
5.68
0.62
-4.37
-10.2
-17.52
-26.43
-36.45
-46.75
-56.42
-64.66
-70.83
-74.43
-75.14
-72.85
-67.78
-60.38
-51.34
-41.43
-31.41
-21.93
-13.45
-6.26
-0.49
3.8
6.62
8.04
8.33
7.92
7.4
7.36
8.22
10.02
12.44
14.93
16.96
18.15
18.32
17.45
15.65
13.11
10.22
7.45
5.25
3.74
2.64
1.27
-1.17
-5.22
-10.87
-17.51
-24.19
-30.07
-34.81
-38.69
-42.43
-46.74
-51.85
-57.21
-61.59
-63.54
-61.97
-56.75
-48.71
-39.32
-29.95
-21.16
-12.57
-3.21
7.63
19.7
31.59
41.26
46.92
47.75
44.09
37.09
28.18
18.7
10.02
3.69
1.36
4.24
12.4
24.46
38.1
51.21
62.66
72.26
79.59
82.49
76.34
55.25
14.95
-43.94
-114.08
-182.45
-234.36
-258.91
-253.48
-224.92
-186.48
-152.09
-130.46
-122.01
-120.39
-117.11
-106.61
-88.54
-66.5
-44.62
-24.86
-7.03
9.19
22.56
30.64
32.12
29.04
26.6
30.27
41.94
58.11
71.68
76.26
70.13
57.0
43.51
35.04
33.09
35.56
39.15
42.02
44.63
48.71
55.28
63.42
70.53
73.67
71.26
63.9
54.19
45.33
39.74
38.08
39.13
40.57
39.99
36.02
28.76
19.66
10.72
3.7
-0.72
-3.13
-5.1
-8.32
-13.85
-21.42
-29.52
-36.01
-38.96
-37.45
-31.79
-23.35
-13.82
-4.55
3.81
11.24
18.0
24.23
29.77
34.17
37.02
38.08
37.45
35.53
32.84
29.94
27.29
25.21
23.88
23.34
23.46
23.99
24.65
25.19
25.41
25.23
24.57
23.37
21.59
19.21
16.28
12.92
9.28
5.49
1.57
-2.51
-6.8
-11.24
-15.73
-20.13
-24.46
-28.82
-33.34
-37.94
-42.14
-45.08
-45.82
-43.68
-38.5
-30.75
-21.25
-10.92
-0.49
9.53
18.76
26.84
33.39
38.1
40.82
41.65
40.92
39.05
36.53
33.78
31.14
28.87
27.1
25.9
25.22
24.96
24.96
25.05
25.06
24.86
24.35
23.46
22.12
20.28
17.9
15.0
11.64
7.96
4.11
0.21
-3.74
-7.79
-12.04
-16.57
-21.43
-26.6
-32.03
-37.48
-42.51
-46.44
-48.46
-47.91
-44.46
-38.3
-30.09
-20.75
-11.23
-2.32
5.43
11.68
16.26
19.1
20.26
19.99
18.65
16.77
14.9
13.51
12.82
12.78
13.12
13.48
13.64
13.59
13.57
13.9
14.86
16.54
18.76
21.1
22.99
23.84
23.2
20.91
17.11
12.25
6.92
1.63
-3.3
-7.84
-12.09
-16.35
-20.96
-26.37
-32.95
-40.77
-49.34
-57.46
-63.46
-65.67
-63.08
-55.65
-44.35
-30.72
-16.32
-2.28
10.78
22.62
33.06
41.8
48.45
52.65
54.29
53.57
50.95
47.15
42.87
38.74
35.17
32.37
30.31
28.82
27.72
26.83
26.06
25.33
24.5
23.33
21.55
18.85
15.07
10.24
4.59
-1.5
-7.61
-13.42
-18.81
-23.88
-28.83
-33.89
-39.2
-44.78
-50.53
-56.27
-61.69
-66.4
-69.88
-71.56
-70.89
-67.51
-61.4
-52.96
-42.97
-32.38
-22.12
-12.91
-5.19
0.86
5.26
8.18
9.88
10.68
10.91
10.83
10.59
10.22
9.73
9.17
8.74
8.73
9.39
10.87
13.11
15.88
18.89
21.81
24.29
26.03
26.79
26.57
25.56
24.17
22.79
21.65
20.67
19.56
18.03
15.97
13.52
10.97
8.56
6.35
4.14
1.61
-1.46
-5.05
-8.79
-12.03
-13.99
-14.01
-11.71
-7.1
-0.62
7.03
15.05
22.68
29.38
34.79
38.72
41.08
41.88
41.21
39.31
36.51
33.22
29.77
26.36
23.02
19.63
16.13
12.55
9.11
6.07
3.63
1.78
0.33
-1.08
-2.73
-4.78
-7.14
-9.61
-12.0
-14.26
-16.5
-18.93
-21.77
-25.06
-28.66
-32.33
-35.83
-39.05
-42.06
-45.06
-48.28
-51.78
-55.36
-58.56
-60.72
-61.18
-59.47
-55.42
-49.2
-41.34
-32.52
-23.5
-15.0
-7.64
-1.83
2.33
4.93
6.34
7.02
7.28
7.33
7.14
6.65
5.88
4.95
4.07
3.43
3.13
3.15
3.42
3.85
4.4
5.01
5.61
6.04
6.14
5.74
4.7
2.98
0.63
-2.16
-5.13
-8.03
-10.72
-13.19
-15.54
-17.93
-20.48
-23.24
-26.21
-29.31
-32.35
-35.0
-36.78
-37.08
-35.39
-31.47
-25.47
-17.99
-9.84
-1.9
5.14
10.86
15.14
18.04
19.72
20.38
20.2
19.31
17.89
16.13
14.24
12.47
11.01
9.97
9.36
9.12
9.17
9.41
9.78
10.2
10.59
10.79
10.62
9.94
8.65
6.74
4.31
1.45
-1.72
-5.1
-8.52
-11.85
-15.0
-18.01
-21.04
-24.34
-28.1
-32.33
-36.75
-40.83
-43.88
-45.22
-44.38
-41.15
-35.68
-28.4
-19.95
-11.1
-2.6
4.92
11.06
15.64
18.68
20.39
21.05
20.95
20.36
19.48
18.43
17.33
16.25
15.3
14.62
14.3
14.36
14.7
15.14
15.47
15.52
15.22
14.56
13.58
12.25
10.51
8.28
5.59
2.55
-0.64
-3.77
-6.67
-9.26
-11.59
-13.77
-15.99
-18.46
-21.39
-24.85
-28.74
-32.67
-36.07
-38.26
-38.64
-36.81
-32.72
-26.6
-18.98
-10.57
-2.14
5.6
12.14
17.21
20.79
23.06
24.28
24.68
24.43
23.69
22.62
21.49
20.58
20.14
20.27
20.86
21.66
22.38
22.78
22.78
22.44
21.86
21.12
20.21
19.03
17.47
15.49
13.13
10.51
7.8
5.08
2.4
-0.3
-3.11
-6.1
-9.32
-12.78
-16.47
-20.33
-24.17
-27.65
-30.23
-31.26
-30.21
-26.85
-21.33
-14.23
-6.33
1.57
8.85
15.09
20.09
23.78
26.16
27.26
27.24
26.26
24.61
22.56
20.39
18.34
16.61
15.32
14.55
14.25
14.33
14.6
14.89
15.06
15.01
14.69
14.02
12.91
11.24
8.95
6.09
2.8
-0.67
-4.07
-7.23
-10.06
-12.59
-14.93
-17.28
-19.83
-22.72
-25.89
-29.05
-31.65
-33.01
-32.51
-29.79
-24.87
-18.17
-10.39
-2.36
5.18
11.64
16.7
20.31
22.63
23.92
24.46
24.5
24.24
23.83
23.39
22.98
22.61
22.22
21.78
21.28
20.78
20.39
20.19
20.18
20.28
20.3
20.1
19.57
18.7
17.5
16.06
14.43
12.68
10.85
8.99
7.03
4.9
2.49
-0.24
-3.18
-6.12
-8.86
-11.36
-13.78
-16.4
-19.43
-22.75
-25.86
-27.95
-28.24
-26.25
-21.99
-15.95
-8.93
-1.76
4.84
10.43
14.81
17.98
20.03
21.11
21.37
20.97
20.04
18.78
17.36
16.01
14.88
14.06
13.53
13.19
12.96
12.75
12.57
12.38
12.18
11.94
11.65
11.29
10.88
10.36
9.55
8.22
6.13
3.2
-0.41
-4.3
-8.02
-11.2
-13.7
-15.65
-17.32
-19.09
-21.24
-23.89
-26.84
-29.61
-31.5
-31.75
-29.81
-25.51
-19.16
-11.43
-3.15
4.85
11.95
17.65
21.71
24.05
24.83
24.43
23.31
21.94
20.61
19.37
18.13
16.75
15.21
13.67
12.38
11.6
11.43
11.82
12.59
13.48
14.27
14.73
14.75
14.24
13.24
11.83
10.16
8.36
6.42
4.24
1.67
-1.38
-4.8
-8.39
-11.84
-14.97
-17.74
-20.25
-22.7
-25.21
-27.8
-30.36
-32.71
-34.53
-35.41
-34.86
-32.47
-28.09
-21.96
-14.77
-7.35
-0.43
5.63
10.93
15.75
20.31
24.51
27.86
29.75
29.73
27.75
24.26
19.99
15.73
12.13
9.65
8.5
8.76
10.23
12.52
15.01
16.9
17.46
16.21
13.11
8.71
3.99
0.15
-1.8
-1.43
0.94
4.31
7.31
8.76
7.98
4.97
0.21
-5.66
-12.07
-18.69
-25.26
-31.47
-36.76
-40.39
-41.54
-39.64
-34.53
-26.61
-16.81
-6.36
3.36
11.2
16.43
18.95
19.25
18.29
17.17
16.8
17.65
19.64
22.18
24.45
25.57
24.82
21.81
16.57
9.65
2.13
-4.65
-9.4
-11.27
-10.19
-6.82
-2.28
2.26
5.9
8.17
8.97
8.37
6.5
3.54
-0.23
-4.43
-8.65
-12.58
-16.12
-19.4
-22.6
-25.8
-28.85
-31.3
-32.56
-32.13
-29.76
-25.56
-19.95
-13.49
-6.73
-0.1
6.07
11.52
15.98
19.25
21.26
22.15
22.17
21.65
20.81
19.76
18.45
16.85
14.99
13.06
11.33
10.02
9.34
9.36
10.09
11.36
12.94
14.39
15.22
14.96
13.33
10.32
6.26
1.62
-3.08
-7.44
-11.27
-14.53
-17.31
-19.75
-21.94
-23.84
-25.21
-25.6
-24.48
-21.4
-16.23
-9.32
-1.46
6.36
13.19
18.5
22.13
24.3
25.33
25.48
24.83
23.34
20.93
17.62
13.62
9.26
4.99
1.24
-1.64
-3.44
-4.18
-4.05
-3.44
-2.83
-2.64
-3.14
-4.37
-6.18
-8.31
-10.56
-12.84
-15.22
-17.83
-20.8
-24.17
-27.77
-31.31
-34.29
-36.1
-36.11
-33.85
-29.11
-22.09
-13.36
-3.74
5.86
14.59
21.8
27.06
30.22
31.37
30.8
28.88
26.01
22.47
18.49
14.28
10.07
6.17
2.88
0.43
-1.14
-1.93
-2.15
-2.09
-1.99
-2.13
-2.71
-3.86
-5.61
-7.81
-10.21
-12.54
-14.63
-16.46
-18.2
-20.13
-22.51
-25.56
-29.21
-33.06
-36.42
-38.37
-38.02
-34.81
-28.72
-20.33
-10.63
-0.72
8.47
16.38
22.79
27.65
30.96
32.69
32.75
31.18
28.25
24.44
20.38
16.65
13.64
11.45
9.95
8.9
8.09
7.35
6.63
5.9
5.15
4.37
3.54
2.58
1.43
-0.07
-2.1
-4.85
-8.38
-12.56
-17.11
-21.59
-25.59
-28.83
-31.23
-32.96
-34.3
-35.64
-37.24
-39.16
-41.13
-42.65
-43.05
-41.72
-38.31
-32.82
-25.62
-17.34
-8.67
-0.26
7.38
13.84
18.83
22.17
23.85
24.07
23.22
21.76
20.11
18.51
17.02
15.53
13.93
12.09
9.99
7.71
5.4
3.35
1.86
1.24
1.59
2.7
4.03
4.85
4.52
2.74
-0.33
-4.16
-8.1
-11.64
-14.53
-16.83
-18.77
-20.62
-22.63
-24.93
-27.53
-30.27
-32.77
-34.51
-34.86
-33.31
-29.53
-23.55
-15.71
-6.66
2.66
11.29
18.37
23.45
26.6
28.4
29.64
30.98
32.7
34.54
35.99
36.53
35.95
34.49
32.6
30.74
29.09
27.62
26.19
24.85
23.86
23.57
24.09
25.12
26.06
26.31
25.72
24.7
23.84
23.31
22.43
19.83
14.14
4.91
-6.95
-19.53
-30.9
-40.04
-47.35
-54.13
-61.62
-70.11
-78.66
-85.59
-89.38
-89.27
-85.52
-78.93
-70.3
-60.05
-48.24
-34.88
-20.18
-4.8
10.34
24.3
36.42
46.43
54.45
60.74
65.58
69.07
71.08
71.37
69.71
66.08
60.75
54.27
47.3
40.5
34.33
28.99
24.49
20.69
17.49
14.78
12.51
10.63
8.99
7.37
5.54
3.33
0.7
-2.21
-5.2
-8.09
-10.78
-13.33
-15.82
-18.34
-20.9
-23.4
-25.7
-27.63
-29.1
-30.06
-30.58
-30.72
-30.53
-30.06
-29.28
-28.21
-26.88
-25.39
-23.92
-22.68
-21.86
-21.53
-21.61
-21.81
-21.68
-20.67
-18.29
-14.21
-8.4
-1.15
6.93
15.08
22.51
28.54
32.83
35.37
36.57
37.07
37.54
38.49
40.05
41.96
43.7
44.67
44.36
42.58
39.44
35.39
31.04
27.11
24.17
22.48
21.94
22.02
21.97
21.06
18.78
15.04
10.12
4.52
-1.2
-6.58
-11.29
-15.18
-18.22
-20.49
-22.11
-23.22
-24.0
-24.65
-25.33
-26.15
-27.08
-27.99
-28.63
-28.8
-28.47
-27.8
-27.13
-26.82
-27.07
-27.86
-28.9
-29.74
-29.87
-28.83
-26.28
-22.05
-16.26
-9.25
-1.58
6.12
13.23
19.26
23.85
26.78
28.01
27.68
26.13
23.89
21.48
19.37
17.78
16.74
16.15
15.8
15.52
15.13
14.5
13.58
12.44
11.26
10.26
9.58
9.19
8.88
8.4
7.53
6.15
4.27
1.95
-0.74
-3.72
-6.93
-10.31
-13.75
-17.12
-20.27
-22.96
-24.98
-26.16
-26.49
-26.14
-25.48
-24.91
-24.77
-25.22
-26.12
-27.07
-27.49
-26.76
-24.39
-20.17
-14.27
-7.22
0.21
7.24
13.29
18.03
21.48
23.76
25.07
25.55
25.26
24.23
22.51
20.21
17.53
14.72
12.05
9.73
7.91
6.65
5.99
5.94
6.42
7.33
8.45
9.53
10.3
10.55
10.16
9.14
7.56
5.56
3.28
0.87
-1.54
-3.84
-5.96
-7.86
-9.59
-11.21
-12.84
-14.57
-16.43
-18.35
-20.17
-21.75
-23.0
-24.04
-25.1
-26.49
-28.37
-30.58
-32.68
-33.97
-33.74
-31.45
-26.92
-20.35
-12.28
-3.51
5.08
12.71
18.73
22.78
24.76
24.86
23.48
21.17
18.54
16.13
14.32
13.25
12.81
12.71
12.63
12.34
11.77
11.0
10.18
9.45
8.83
8.25
7.51
6.43
4.89
2.89
0.61
-1.71
-3.77
-5.34
-6.31
-6.79
-7.01
-7.34
-8.12
-9.61
-11.88
-14.76
-17.96
-21.08
-23.8
-25.96
-27.57
-28.77
-29.74
-30.52
-31.0
-30.8
-29.48
-26.59
-21.91
-15.54
-7.97
0.05
7.68
14.18
19.1
22.33
24.08
24.63
24.3
23.28
21.68
19.63
17.32
15.02
12.95
11.28
10.01
9.13
8.63
8.56
8.98
9.92
11.19
12.52
13.54
13.95
13.61
12.54
10.85
8.71
6.28
3.69
1.02
-1.69
-4.46
-7.29
-10.19
-13.07
-15.78
-18.19
-20.21
-21.87
-23.28
-24.63
-26.09
-27.74
-29.5
-31.09
-32.03
-31.72
-29.6
-25.37
-19.08
-11.19
-2.43
6.38
14.48
21.33
26.57
30.04
31.75
31.85
30.6
28.31
25.34
21.98
18.47
14.99
11.73
8.87
6.64
5.21
4.63
4.82
5.56
6.47
7.22
7.51
7.21
6.38
5.17
3.79
2.41
1.07
-0.27
-1.76
-3.53
-5.64
-8.04
-10.59
-13.09
-15.32
-17.17
-18.62
-19.75
-20.75
-21.85
-23.27
-25.06
-27.09
-28.93
-29.95
-29.5
-27.08
-22.55
-16.18
-8.53
-0.35
7.64
14.82
20.73
25.1
27.79
28.87
28.53
27.04
24.72
21.86
18.72
15.55
12.59
10.1
8.26
7.14
6.68
6.7
7.02
7.48
7.98
8.47
8.88
9.13
9.08
8.6
7.61
6.1
4.17
2.0
-0.2
-2.28
-4.23
-6.17
-8.32
-10.85
-13.82
-17.13
-20.53
-23.8
-26.75
-29.32
-31.47
-33.12
-34.06
-33.94
-32.32
-28.82
-23.26
-15.78
-6.95
2.34
11.05
18.26
23.42
26.47
27.71
27.7
26.91
25.65
24.01
21.97
19.49
16.6
13.4
10.07
6.82
3.93
1.7
0.39
0.12
0.81
2.18
3.79
5.21
6.13
6.37
5.97
5.07
3.84
2.45
0.96
-0.63
-2.39
-4.42
-6.75
-9.31
-11.94
-14.41
-16.54
-18.21
-19.46
-20.44
-21.38
-22.5
-23.86
-25.29
-26.33
-26.34
-24.67
-20.9
-14.95
-7.23
1.53
10.4
18.51
25.2
30.07
33.01
34.09
33.6
31.86
29.29
26.24
22.99
19.69
16.36
13.01
9.67
6.5
3.78
1.75
0.59
0.32
0.74
1.58
2.5
3.22
3.49
3.17
2.16
0.49
-1.71
-4.22
-6.77
-9.17
-11.32
-13.21
-14.94
-16.64
-18.48
-20.64
-23.2
-26.12
-29.1
-31.61
-32.94
-32.39
-29.55
-24.34
-17.14
-8.69
0.18
8.63
15.99
21.81
25.89
28.25
29.08
28.67
27.31
25.25
22.68
19.74
16.6
13.47
10.6
8.2
6.45
5.42
5.09
5.35
6.0
6.76
7.41
7.75
7.7
7.29
6.51
5.35
3.71
1.48
-1.31
-4.52
-7.88
-11.09
-13.99
-16.52
-18.75
-20.79
-22.73
-24.64
-26.62
-28.76
-31.05
-33.3
-35.03
-35.49
-33.85
-29.5
-22.31
-12.82
-2.1
8.54
17.9
25.14
29.95
32.43
32.91
31.84
29.7
26.9
23.81
20.72
17.81
15.18
12.86
10.89
9.34
8.27
7.71
7.66
8.03
8.71
9.56
10.42
11.09
11.36
11.03
9.97
8.19
5.82
3.08
0.23
-2.56
-5.18
-7.62
-9.91
-12.07
-14.05
-15.78
-17.15
-18.19
-19.05
-20.02
-21.4
-23.36
-25.81
-28.35
-30.35
-31.13
-30.07
-26.78
-21.23
-13.72
-4.9
4.36
13.08
20.45
25.91
29.3
30.75
30.6
29.19
26.87
23.94
20.7
17.46
14.46
11.85
9.69
7.96
6.63
5.75
5.32
5.33
5.7
6.21
6.62
6.68
6.22
5.16
3.47
1.17
-1.71
-5.07
-8.73
-12.47
-16.02
-19.15
-21.67
-23.52
-24.76
-25.6
-26.3
-27.14
-28.31
-29.78
-31.3
-32.33
-32.22
-30.31
-26.17
-19.75
-11.47
-2.09
7.4
16.06
23.15
28.28
31.42
32.76
32.63
31.32
29.08
26.08
22.53
18.68
14.86
11.41
8.63
6.71
5.69
5.46
5.83
6.56
7.44
8.21
8.71
8.74
8.18
6.97
5.15
2.9
0.47
-1.85
-3.9
-5.7
-7.46
-9.46
-11.87
-14.6
-17.31
-19.6
-21.2
-22.14
-22.8
-23.7
-25.27
-27.56
-30.22
-32.52
-33.59
-32.69
-29.36
-23.62
-15.88
-6.86
2.56
11.48
19.16
25.13
29.17
31.38
32.04
31.5
30.1
28.1
25.67
22.98
20.17
17.4
14.82
12.55
10.68
9.25
8.33
8.01
8.34
9.34
10.84
12.49
13.78
14.17
13.28
11.06
7.8
4.06
0.46
-2.58
-4.98
-6.95
-8.84
-10.91
-13.22
-15.6
-17.78
-19.53
-20.74
-21.4
-21.65
-21.67
-21.73
-22.13
-23.13
-24.8
-26.87
-28.71
-29.43
-28.19
-24.48
-18.33
-10.29
-1.22
7.9
16.27
23.29
28.62
32.07
33.62
33.4
31.71
28.94
25.51
21.81
18.13
14.71
11.75
9.39
7.74
6.8
6.5
6.65
7.03
7.43
7.65
7.57
7.05
6.03
4.49
2.44
0.0
-2.71
-5.55
-8.43
-11.25
-13.92
-16.32
-18.31
-19.8
-20.79
-21.45
-22.08
-23.03
-24.53
-26.57
-28.92
-31.18
-32.83
-33.39
-32.45
-29.74
-25.19
-19.02
-11.8
-4.34
2.53
8.17
12.35
15.19
17.0
18.08
18.55
18.38
17.51
15.99
14.06
12.03
10.18
8.7
7.58
6.76
6.15
5.7
5.39
5.2
5.08
4.93
4.57
3.83
2.56
0.72
-1.62
-4.28
-7.09
-9.89
-12.57
-15.03
-17.18
-18.96
-20.43
-21.73
-23.15
-24.86
-26.82
-28.65
-29.67
-29.1
-26.34
-21.12
-13.65
-4.48
5.58
15.62
24.77
32.27
37.64
40.69
41.58
40.75
38.71
35.93
32.7
29.16
25.36
21.35
17.32
13.55
10.4
8.19
7.06
6.96
7.59
8.55
9.44
9.98
10.08
9.79
9.19
8.35
7.26
5.82
3.93
1.53
-1.32
-4.48
-7.74
-10.88
-13.72
-16.16
-18.24
-20.08
-21.9
-23.9
-26.22
-28.87
-31.61
-33.91
-35.0
-34.01
-30.26
-23.52
-14.28
-3.61
7.11
16.55
23.81
28.61
31.13
31.85
31.26
29.74
27.52
24.76
21.7
18.61
15.77
13.39
11.56
10.21
9.21
8.44
7.83
7.4
7.17
7.17
7.33
7.51
7.53
7.18
6.29
4.72
2.37
-0.72
-4.42
-8.39
-12.22
-15.51
-18.05
-19.8
-20.98
-21.92
-22.91
-24.17
-25.69
-27.34
-28.74
-29.43
-28.81
-26.33
-21.64
-14.75
-6.16
3.26
12.47
20.55
26.91
31.4
34.16
35.44
35.45
34.24
31.83
28.28
23.85
18.96
14.08
9.67
6.02
3.31
1.58
0.78
0.78
1.38
2.27
3.14
3.7
3.68
2.97
1.52
-0.57
-3.12
-5.91
-8.7
-11.31
-13.66
-15.72
-17.57
-19.27
-20.95
-22.72
-24.67
-26.8
-28.92
-30.68
-31.49
-30.74
-27.92
-22.89
-15.88
-7.5
1.37
9.92
17.48
23.64
28.27
31.33
32.84
32.8
31.25
28.37
24.47
20.06
15.67
11.73
8.54
6.19
4.62
3.66
3.18
3.05
3.21
3.62
4.22
4.86
5.31
5.27
4.47
2.75
0.17
-2.99
-6.31
-9.4
-12.01
-14.14
-16.04
-18.0
-20.22
-22.69
-25.05
-26.72
-27.03
-25.34
-21.32
-15.02
-6.95
2.05
11.01
19.04
25.48
29.98
32.46
33.09
32.13
29.95
26.96
23.54
20.04
16.71
13.68
11.05
8.8
6.94
5.46
4.34
3.61
3.31
3.43
3.86
4.35
4.52
3.96
2.34
-0.53
-4.56
-9.49
-14.82
-19.98
-24.39
-27.55
-29.22
-29.4
-28.31
-26.32
-23.74
-20.74
-17.35
-13.5
-9.07
-4.0
1.71
8.01
14.71
21.44
27.63
32.52
35.3
35.31
32.2
26.11
17.69
7.97
-1.84
-10.53
-17.21
-21.37
-22.99
-22.47
-20.47
-17.75
-14.93
-12.38
-10.13
-8.02
-5.79
-3.34
-0.73
1.72
3.62
4.61
4.44
3.08
0.65
-2.65
-6.53
-10.75
-15.07
-19.31
-23.3
-26.87
-29.75
-31.55
-31.81
-30.1
-26.23
-20.32
-12.84
-4.54
3.74
11.25
17.46
22.08
25.13
26.77
27.28
26.98
26.04
24.56
22.57
20.09
17.26
14.27
11.41
8.9
6.86
5.28
4.05
3.04
2.12
1.21
0.29
-0.65
-1.55
-2.39
-3.2
-4.09
-5.22
-6.76
-8.82
-11.41
-14.42
-17.67
-20.89
-23.83
-26.2
-27.77
-28.45
-28.36
-27.8
-27.13
-26.55
-25.98
-24.98
-22.94
-19.31
-13.85
-6.77
1.34
9.68
17.45
23.99
28.91
32.1
33.65
33.77
32.7
30.67
27.92
24.64
21.09
17.51
14.13
11.15
8.7
6.86
5.71
5.31
5.7
6.79
8.38
10.08
11.52
12.38
12.48
11.83
10.58
8.9
6.9
4.63
2.04
-0.95
-4.39
-8.29
-12.54
-16.91
-21.11
-24.8
-27.72
-29.74
-30.96
-31.64
-32.08
-32.53
-32.94
-32.9
-31.71
-28.58
-22.98
-14.85
-4.7
6.53
17.67
27.65
35.67
41.2
44.02
44.17
41.91
37.73
32.28
26.3
20.39
15.01
10.39
6.63
3.67
1.45
-0.14
-1.25
-1.98
-2.39
-2.53
-2.46
-2.25
-2.05
-1.95
-1.96
-2.01
-1.95
-1.74
-1.53
-1.6
-2.37
-4.13
-6.93
-10.6
-14.74
-18.88
-22.58
-25.49
-27.39
-28.25
-28.21
-27.62
-26.91
-26.43
-26.27
-26.12
-25.34
-23.09
-18.7
-11.93
-3.14
6.78
16.65
25.36
32.15
36.74
39.25
39.99
39.34
37.54
34.81
31.32
27.29
23.01
18.73
14.66
10.98
7.82
5.32
3.53
2.46
2.02
2.04
2.37
2.85
3.36
3.76
3.9
3.59
2.73
1.36
-0.35
-2.15
-3.83
-5.32
-6.69
-8.09
-9.64
-11.36
-13.18
-15.0
-16.79
-18.55
-20.33
-22.16
-23.96
-25.55
-26.65
-26.9
-25.87
-23.22
-18.78
-12.66
-5.39
2.24
9.37
15.31
19.75
22.67
24.26
24.68
24.01
22.29
19.66
16.42
13.03
9.97
7.55
5.88
4.83
4.21
3.8
3.46
3.11
2.72
2.27
1.74
1.12
0.38
-0.51
-1.57
-2.86
-4.4
-6.25
-8.42
-10.87
-13.45
-15.94
-18.06
-19.61
-20.5
-20.91
-21.15
-21.63
-22.61
-24.14
-25.94
-27.46
-28.03
-27.03
-24.06
-19.09
-12.4
-4.47
4.06
12.53
20.31
26.82
31.58
34.31
34.99
33.91
31.48
28.19
24.4
20.36
16.26
12.28
8.72
5.84
3.84
2.74
2.42
2.63
3.12
3.66
4.08
4.25
4.11
3.68
3.05
2.31
1.5
0.6
-0.5
-1.94
-3.78
-6.04
-8.61
-11.33
-14.01
-16.51
-18.73
-20.66
-22.38
-23.98
-25.6
-27.29
-28.93
-30.17
-30.43
-29.08
-25.63
-19.92
-12.29
-3.45
5.62
14.02
21.14
26.68
30.59
32.91
33.66
32.87
30.65
27.23
23.06
18.63
14.41
10.76
7.9
5.9
4.76
4.41
4.7
5.44
6.38
7.28
7.93
8.14
7.77
6.79
5.3
3.45
1.46
-0.52
-2.46
-4.45
-6.62
-9.05
-11.68
-14.36
-16.89
-19.11
-20.98
-22.56
-23.99
-25.4
-26.91
-28.54
-30.2
-31.62
-32.39
-32.01
-29.97
-25.94
-19.88
-12.16
-3.44
5.42
13.6
20.45
25.54
28.7
29.9
29.21
26.82
23.1
18.55
13.77
9.35
5.7
3.03
1.35
0.55
0.48
1.03
2.07
3.44
4.95
6.35
7.46
8.18
8.51
8.55
8.41
8.12
7.66
6.97
5.96
4.59
2.85
0.72
-1.83
-4.88
-8.51
-12.75
-17.54
-22.71
-27.93
-32.74
-36.63
-39.04
-39.54
-37.89
-34.1
-28.58
-21.94
-14.96
-8.21
-1.92
4.15
10.55
17.85
26.26
35.34
44.04
50.92
54.65
54.43
50.31
43.18
34.58
26.25
19.69
15.85
14.93
16.42
19.38
22.69
25.36
26.68
26.3
24.21
20.67
16.14
11.17
6.33
2.03
-1.57
-4.62
-7.54
-10.81
-14.78
-19.48
-24.56
-29.41
-33.36
-35.93
-37.01
-36.87
-36.08
-35.33
-35.18
-35.9
-37.25
-38.53
-38.68
-36.62
-31.61
-23.55
-13.06
-1.37
10.05
19.86
27.19
31.77
33.9
34.22
33.43
32.07
30.42
28.49
26.18
23.43
20.29
16.94
13.6
10.47
7.71
5.39
3.65
2.57
2.23
2.58
3.44
4.5
5.37
5.71
5.3
4.09
2.2
-0.08
-2.43
-4.56
-6.35
-7.85
-9.23
-10.74
-12.52
-14.59
-16.79
-18.89
-20.63
-21.86
-22.62
-23.11
-23.61
-24.39
-25.51
-26.79
-27.7
-27.55
-25.62
-21.51
-15.24
-7.34
1.36
9.88
17.39
23.3
27.32
29.41
29.68
28.4
25.91
22.63
18.95
15.27
11.91
9.14
7.17
6.1
5.92
6.42
7.27
8.1
8.62
8.7
8.38
7.76
6.92
5.81
4.27
2.09
-0.88
-4.67
-9.11
-13.88
-18.54
-22.63
-25.77
-27.8
-28.83
-29.27
-29.67
-30.57
-32.18
-34.31
-36.24
-36.98
-35.47
-31.0
-23.47
-13.46
-2.15
8.96
18.46
25.34
29.29
30.64
30.19
28.94
27.69
26.89
26.54
26.26
25.49
23.74
20.77
16.74
12.19
7.88
4.6
2.9
2.9
4.3
6.47
8.59
9.94
10.03
8.75
6.31
3.21
0.05
-2.7
-4.8
-6.31
-7.52
-8.85
-10.65
-13.11
-16.12
-19.32
-22.24
-24.47
-25.85
-26.6
-27.18
-28.13
-29.69
-31.6
-33.04
-32.92
-30.23
-24.44
-15.73
-4.94
6.65
17.68
26.97
33.78
37.83
39.24
38.42
35.87
32.07
27.44
22.36
17.23
12.5
8.63
6.03
4.91
5.22
6.62
8.63
10.67
12.23
13.0
12.88
11.98
10.56
8.9
7.22
5.62
4.06
2.44
0.66
-1.37
-3.68
-6.25
-9.01
-11.82
-14.47
-16.77
-18.57
-19.9
-20.96
-22.06
-23.54
-25.54
-28.03
-30.67
-32.83
-33.71
-32.49
-28.6
-21.9
-12.9
-2.59
7.77
17.04
24.45
29.7
32.81
33.92
33.22
30.96
27.45
23.16
18.66
14.5
11.03
8.4
6.57
5.44
4.92
4.95
5.47
6.4
7.53
8.62
9.41
9.68
9.36
8.48
7.18
5.64
3.98
2.25
0.37
-1.77
-4.28
-7.23
-10.52
-13.94
-17.21
-20.08
-22.41
-24.2
-25.62
-26.94
-28.44
-30.3
-32.47
-34.66
-36.22
-36.35
-34.23
-29.33
-21.58
-11.52
-0.18
11.19
21.39
29.51
35.06
37.96
38.48
37.05
34.25
30.68
26.89
23.29
20.15
17.55
15.44
13.7
12.26
11.09
10.25
9.82
9.84
10.22
10.79
11.27
11.37
10.88
9.72
7.91
5.56
2.84
-0.1
-3.13
-6.13
-9.03
-11.77
-14.3
-16.59
-18.6
-20.31
-21.73
-22.96
-24.24
-25.79
-27.78
-30.12
-32.39
-33.86
-33.72
-31.29
-26.28
-18.93
-9.9
-0.13
9.42
18.01
25.1
30.4
33.78
35.2
34.7
32.5
28.94
24.51
19.76
15.19
11.19
8.04
5.86
4.68
4.35
4.61
5.11
5.58
5.87
5.94
5.91
5.81
5.64
5.28
4.6
3.52
2.01
0.09
-2.23
-4.97
-8.12
-11.56
-15.1
-18.48
-21.4
-23.69
-25.24
-26.13
-26.57
-26.91
-27.53
-28.68
-30.42
-32.45
-34.12
-34.61
-33.08
-28.98
-22.19
-13.16
-2.77
7.85
17.61
25.67
31.54
35.1
36.51
36.06
34.11
31.09
27.43
23.51
19.68
16.12
12.94
10.21
8.02
6.52
5.85
6.02
6.86
8.03
9.09
9.68
9.61
8.84
7.47
5.63
3.4
0.81
-2.12
-5.35
-8.76
-12.12
-15.18
-17.7
-19.6
-20.96
-22.05
-23.24
-24.82
-26.92
-29.38
-31.83
-33.76
-34.55
-33.62
-30.51
-24.97
-17.13
-7.56
2.81
12.85
21.51
28.08
32.32
34.4
34.71
33.66
31.56
28.59
24.93
20.79
16.52
12.52
9.21
6.86
5.59
5.3
5.78
6.77
8.01
9.28
10.39
11.17
11.41
10.98
9.77
7.78
5.1
1.92
-1.55
-5.09
-8.49
-11.63
-14.44
-16.86
-18.89
-20.6
-22.07
-23.5
-25.1
-27.04
-29.3
-31.63
-33.44
-33.93
-32.34
-28.11
-21.21
-12.17
-1.96
8.22
17.28
24.49
29.55
32.49
33.57
33.1
31.34
28.55
24.98
20.89
16.57
12.28
8.33
5.01
2.67
1.58
1.87
3.37
5.65
8.06
9.96
10.86
10.62
9.37
7.42
5.12
2.74
0.45
-1.69
-3.73
-5.75
-7.87
-10.14
-12.57
-15.05
-17.44
-19.58
-21.46
-23.16
-24.86
-26.77
-28.95
-31.27
-33.36
-34.63
-34.4
-32.03
-27.17
-19.84
-10.59
-0.31
9.87
18.93
26.16
31.21
34.07
34.96
34.21
32.18
29.29
25.94
22.5
19.27
16.47
14.2
12.48
11.23
10.34
9.71
9.28
9.09
9.2
9.62
10.22
10.71
10.72
9.98
8.38
6.1
3.44
0.74
-1.78
-4.04
-6.11
-8.11
-10.18
-12.38
-14.71
-17.03
-19.17
-20.91
-22.11
-22.76
-23.04
-23.29
-23.91
-25.23
-27.34
-29.94
-32.31
-33.46
-32.43
-28.56
-21.83
-12.81
-2.53
7.8
17.14
24.75
30.26
33.61
34.94
34.5
32.68
29.91
26.64
23.26
20.06
17.18
14.71
12.68
11.11
10.0
9.31
8.93
8.75
8.65
8.58
8.54
8.52
8.5
8.36
7.94
7.07
5.71
3.89
1.8
-0.34
-2.38
-4.24
-5.97
-7.63
-9.27
-10.82
-12.2
-13.34
-14.26
-15.13
-16.21
-17.73
-19.82
-22.41
-25.18
-27.68
-29.3
-29.44
-27.6
-23.51
-17.29
-9.41
-0.66
8.01
15.77
22.01
26.45
29.12
30.2
29.9
28.46
26.07
23.0
19.59
16.21
13.19
10.78
9.11
8.16
7.85
8.04
8.53
9.08
9.45
9.42
8.9
7.89
6.47
4.74
2.78
0.62
-1.66
-3.97
-6.23
-8.4
-10.56
-12.8
-15.22
-17.73
-20.12
-22.11
-23.45
-24.11
-24.3
-24.37
-24.74
-25.66
-27.15
-28.87
-30.22
-30.47
-28.91
-25.08
-18.91
-10.81
-1.55
7.88
16.48
23.48
28.45
31.35
32.39
31.91
30.28
27.75
24.55
20.92
17.17
13.64
10.7
8.62
7.44
7.05
7.21
7.71
8.36
9.09
9.83
10.51
10.97
11.06
10.63
9.62
8.07
6.06
3.76
1.28
-1.28
-3.81
-6.25
-8.55
-10.64
-12.51
-14.22
-15.88
-17.6
-19.43
-21.28
-22.98
-24.31
-25.23
-25.86
-26.49
-27.44
-28.85
-30.58
-32.14
-32.82
-31.83
-28.57
-22.79
-14.74
-5.13
5.06
14.73
23.0
29.29
33.39
35.34
35.31
33.58
30.52
26.6
22.36
18.33
14.89
12.21
10.25
8.89
7.99
7.45
7.24
7.33
7.67
8.25
8.98
9.8
10.51
10.87
10.63
9.58
7.71
5.22
2.42
-0.36
-2.92
-5.23
-7.4
-9.53
-11.65
-13.68
-15.48
-16.93
-18.01
-18.82
-19.57
-20.51
-21.8
-23.49
-25.42
-27.23
-28.38
-28.22
-26.2
-22.02
-15.75
-7.9
0.71
9.19
16.75
22.9
27.4
30.23
31.42
31.06
29.25
26.19
22.2
17.73
13.26
9.22
5.96
3.68
2.44
2.16
2.64
3.59
4.72
5.78
6.61
7.09
7.12
6.63
5.57
4.01
2.08
-0.01
-2.07
-4.0
-5.79
-7.54
-9.35
-11.35
-13.56
-15.92
-18.27
-20.37
-22.04
-23.24
-24.14
-25.09
-26.48
-28.47
-30.82
-32.91
-33.85
-32.86
-29.48
-23.73
-16.07
-7.21
2.1
11.15
19.27
25.88
30.55
33.08
33.54
32.29
29.86
26.73
23.24
19.59
15.94
12.5
9.56
7.41
6.15
5.7
5.8
6.15
6.54
6.87
7.11
7.23
7.17
6.83
6.15
5.1
3.67
1.85
-0.4
-3.08
-6.11
-9.32
-12.49
-15.41
-17.91
-19.86
-21.15
-21.8
-21.96
-22.04
-22.58
-24.05
-26.53
-29.55
-32.11
-32.97
-31.08
-25.99
-17.97
-7.91
2.96
13.42
22.45
29.4
33.95
36.09
36.07
34.33
31.38
27.76
23.84
19.84
15.83
11.83
7.93
4.38
1.59
-0.01
-0.15
1.19
3.68
6.8
9.94
12.54
14.21
14.7
13.94
12.01
9.16
5.74
2.19
-1.18
-4.22
-7.06
-9.99
-13.29
-17.04
-21.07
-25.0
-28.42
-31.05
-32.78
-33.68
-33.81
-33.11
-31.35
-28.17
-23.3
-16.76
-8.97
-0.72
7.06
13.54
18.24
21.06
22.23
22.06
20.85
18.73
15.79
12.2
8.25
4.39
1.13
-1.15
-2.27
-2.3
-1.48
-0.12
1.47
3.02
4.3
5.09
5.19
4.39
2.63
-0.07
-3.51
-7.37
-11.35
-15.21
-18.85
-22.37
-25.91
-29.61
-33.46
-37.22
-40.4
-42.35
-42.36
-39.89
-34.7
-27.0
-17.48
-7.14
2.9
11.77
18.94
24.34
28.16
30.71
32.15
32.53
31.79
29.92
27.05
23.51
19.73
16.16
13.14
10.92
9.61
9.2
9.58
10.49
11.59
12.48
12.78
12.27
10.88
8.72
5.99
2.95
-0.17
-3.19
-5.98
-8.51
-10.82
-13.03
-15.29
-17.72
-20.4
-23.31
-26.28
-29.02
-31.07
-31.84
-30.71
-27.15
-20.96
-12.39
-2.17
8.62
18.79
27.4
33.88
38.11
40.29
40.73
39.74
37.59
34.54
30.98
27.36
24.14
21.64
19.93
18.85
18.13
17.49
16.83
16.17
15.66
15.38
15.29
15.16
14.69
13.61
11.78
9.24
6.24
3.11
0.21
-2.21
-4.06
-5.41
-6.49
-7.59
-8.93
-10.62
-12.57
-14.58
-16.36
-17.74
-18.63
-19.14
-19.49
-19.98
-20.91
-22.48
-24.63
-27.0
-28.84
-29.22
-27.26
-22.49
-15.05
-5.69
4.43
14.14
22.47
28.86
33.12
35.3
35.55
34.11
31.28
27.47
23.13
18.75
14.77
11.52
9.2
7.87
7.39
7.52
7.95
8.45
8.87
9.23
9.59
9.92
10.13
10.02
9.37
8.07
6.16
3.78
1.15
-1.53
-4.09
-6.4
-8.39
-10.01
-11.26
-12.2
-12.94
-13.59
-14.27
-15.08
-16.02
-17.05
-18.04
-18.9
-19.61
-20.3
-21.21
-22.55
-24.37
-26.39
-28.04
-28.52
-27.09
-23.28
-17.13
-9.13
-0.17
8.74
16.7
23.1
27.69
30.51
31.73
31.6
30.28
28.0
25.0
21.59
18.1
14.8
11.88
9.46
7.7
6.71
6.6
7.35
8.71
10.25
11.45
11.9
11.47
10.27
8.6
6.74
4.88
3.03
1.19
-0.65
-2.46
-4.18
-5.75
-7.17
-8.44
-9.51
-10.3
-10.72
-10.78
-10.66
-10.62
-10.96
-11.84
-13.21
-14.87
-16.53
-17.97
-19.11
-20.0
-20.83
-21.81
-23.15
-24.93
-27.05
-29.17
-30.7
-30.87
-29.02
-24.75
-18.15
-9.81
-0.67
8.24
16.02
22.1
26.26
28.57
29.27
28.69
27.13
24.91
22.29
19.55
16.92
14.6
12.74
11.42
10.62
10.24
10.15
10.19
10.24
10.25
10.21
10.16
10.05
9.83
9.36
8.57
7.45
6.07
4.58
3.09
1.66
0.25
-1.24
-2.89
-4.67
-6.42
-7.98
-9.18
-10.01
-10.59
-11.12
-11.79
-12.71
-13.84
-15.02
-16.1
-16.95
-17.59
-18.19
-19.0
-20.27
-22.08
-24.27
-26.38
-27.74
-27.65
-25.58
-21.36
-15.25
-7.82
0.14
7.88
14.78
20.45
24.73
27.57
29.03
29.18
28.12
25.99
22.96
19.28
15.24
11.2
7.5
4.48
2.3
1.02
0.51
0.55
0.93
1.44
1.92
2.23
2.19
1.67
0.61
-0.97
-2.91
-4.98
-6.98
-8.78
-10.34
-11.66
-12.78
-13.69
-14.36
-14.74
-14.82
-14.63
-14.25
-13.79
-13.37
-13.15
-13.27
-13.93
-15.25
-17.28
-19.89
-22.68
-24.98
-26.06
-25.29
-22.33
-17.3
-10.71
-3.27
4.26
11.29
17.39
22.32
25.9
28.05
28.73
28.01
26.06
23.18
19.74
16.15
12.83
10.12
8.22
7.15
6.78
6.88
7.27
7.83
8.5
9.18
9.73
9.89
9.42
8.24
6.43
4.22
1.84
-0.6
-3.14
-5.86
-8.8
-11.82
-14.66
-17.02
-18.71
-19.75
-20.37
-20.93
-21.75
-23.03
-24.81
-26.92
-29.09
-30.95
-32.01
-31.74
-29.63
-25.35
-18.9
-10.68
-1.43
7.92
16.45
23.45
28.53
31.58
32.75
32.35
30.72
28.23
25.15
21.74
18.22
14.77
11.58
8.83
6.59
4.85
3.64
3.02
3.11
4.0
5.56
7.43
9.02
9.75
9.28
7.67
5.34
2.86
0.77
-0.7
-1.58
-2.14
-2.73
-3.6
-4.85
-6.42
-8.14
-9.83
-11.39
-12.87
-14.44
-16.34
-18.86
-22.09
-25.88
-29.74
-32.79
-33.98
-32.26
-27.0
-18.22
-6.71
6.08
18.41
28.74
36.03
39.97
40.87
39.4
36.35
32.4
28.04
23.55
19.1
14.79
10.64
6.65
2.82
-0.82
-4.12
-6.78
-8.5
-9.0
-8.21
-6.33
-3.76
-1.02
1.43
3.26
4.33
4.64
4.3
3.38
1.96
0.09
-2.18
-4.77
-7.57
-10.42
-13.18
-15.75
-18.04
-20.07
-21.86
-23.38
-24.52
-25.07
-24.72
-23.12
-19.97
-15.13
-8.73
-1.16
6.94
14.75
21.51
26.55
29.46
30.09
28.55
25.2
20.59
15.38
10.22
5.65
2.0
-0.62
-2.21
-2.85
-2.57
-1.44
0.43
2.85
5.51
8.06
10.19
11.68
12.37
12.1
10.69
8.02
4.1
-0.77
-6.04
-11.09
-15.45
-19.07
-22.23
-25.43
-29.03
-32.98
-36.77
-39.5
-40.24
-38.33
-33.57
-26.34
-17.42
-7.76
1.73
10.34
17.69
23.56
27.9
30.71
31.97
31.71
30.05
27.25
23.69
19.85
16.18
13.03
10.59
8.85
7.72
7.0
6.52
6.15
5.82
5.46
5.0
4.29
3.21
1.67
-0.33
-2.7
-5.27
-7.89
-10.45
-12.93
-15.38
-17.92
-20.66
-23.69
-26.96
-30.28
-33.37
-35.81
-37.07
-36.57
-33.8
-28.42
-20.5
-10.61
0.27
10.91
20.23
27.49
32.46
35.28
36.29
35.83
34.2
31.68
28.53
25.08
21.55
18.14
14.91
11.97
9.44
7.53
6.39
6.05
6.31
6.82
7.21
7.23
6.82
6.02
4.91
3.51
1.71
-0.53
-3.21
-6.21
-9.31
-12.3
-15.02
-17.4
-19.36
-20.85
-21.76
-22.13
-22.09
-21.97
-22.21
-23.13
-24.79
-26.84
-28.6
-29.21
-27.87
-24.07
-17.79
-9.45
0.11
9.83
18.68
25.83
30.84
33.65
34.49
33.74
31.78
28.94
25.47
21.65
17.76
14.11
10.99
8.58
6.98
6.15
5.98
6.27
6.76
7.19
7.34
7.08
6.36
5.2
3.68
1.89
-0.08
-2.13
-4.21
-6.31
-8.47
-10.76
-13.21
-15.79
-18.33
-20.6
-22.36
-23.42
-23.74
-23.47
-22.86
-22.24
-21.87
-21.83
-21.95
-21.78
-20.76
-18.39
-14.45
-9.12
-2.96
3.32
9.14
14.35
19.22
24.3
30.07
36.59
43.45
49.76
54.49
56.73
56.05
52.56
46.89
40.01
33.01
26.86
22.17
19.19
17.8
17.57
17.95
18.35
18.27
17.29
15.21
12.02
7.88
3.15
-1.77
-6.52
-10.84
-14.62
-17.89
-20.8
-23.57
-26.46
-29.62
-33.12
-36.85
-40.54
-43.84
-46.46
-48.27
-49.38
-50.05
-50.64
-51.32
-51.99
-52.19
-51.24
-48.37
-43.03
-35.1
-24.98
-13.56
-1.99
8.59
17.37
23.98
28.49
31.24
32.65
32.99
32.4
30.97
28.84
26.29
23.67
21.23
19.07
17.05
14.94
12.6
10.09
7.7
5.79
4.66
4.4
4.8
5.49
5.99
5.86
4.79
2.67
-0.38
-4.05
-7.88
-11.42
-14.32
-16.47
-17.93
-18.86
-19.44
-19.78
-19.98
-20.11
-20.29
-20.66
-21.3
-22.2
-23.29
-24.44
-25.55
-26.45
-26.88
-26.44
-24.56
-20.76
-14.84
-7.07
1.82
10.83
19.01
25.67
30.5
33.45
34.61
34.08
32.01
28.63
24.3
19.51
14.81
10.65
7.37
5.09
3.84
3.54
4.12
5.48
7.41
9.59
11.59
12.9
13.1
11.98
9.64
6.47
2.98
-0.34
-3.23
-5.69
-7.9
-10.1
-12.47
-15.0
-17.54
-19.85
-21.73
-23.11
-24.09
-24.96
-26.03
-27.54
-29.47
-31.53
-33.13
-33.51
-31.96
-27.98
-21.46
-12.8
-2.82
7.34
16.61
24.12
29.48
32.72
34.18
34.27
33.28
31.36
28.53
24.88
20.61
16.08
11.7
7.88
4.89
2.93
2.04
2.13
3.06
4.55
6.26
7.83
8.97
9.42
9.1
7.97
6.13
3.7
0.87
-2.17
-5.25
-8.23
-11.07
-13.77
-16.33
-18.71
-20.81
-22.51
-23.75
-24.66
-25.53
-26.73
-28.54
-30.89
-33.29
-34.89
-34.74
-32.05
-26.56
-18.54
-8.78
1.66
11.67
20.36
27.11
31.64
34.02
34.51
33.56
31.61
29.05
26.14
23.06
19.93
16.87
14.05
11.59
9.57
8.01
6.91
6.21
5.9
5.92
6.18
6.52
6.73
6.62
6.06
5.02
3.53
1.62
-0.67
-3.33
-6.25
-9.25
-12.1
-14.56
-16.54
-18.13
-19.57
-21.15
-23.08
-25.42
-27.96
-30.29
-31.81
-31.86
-29.85
-25.4
-18.53
-9.68
0.33
10.47
19.69
27.18
32.46
35.44
36.34
35.53
33.41
30.3
26.42
21.98
17.23
12.56
8.41
5.2
3.17
2.39
2.66
3.66
5.02
6.38
7.47
8.14
8.29
7.93
7.07
5.75
3.96
1.67
-1.15
-4.5
-8.28
-12.3
-16.25
-19.82
-22.78
-25.01
-26.6
-27.78
-28.86
-30.06
-31.46
-32.86
-33.73
-33.3
-30.77
-25.57
-17.64
-7.57
3.57
14.44
23.81
30.86
35.22
36.99
36.55
34.42
31.18
27.37
23.45
19.77
16.52
13.73
11.41
9.53
8.12
7.23
6.91
7.17
7.91
8.97
10.07
10.91
11.2
10.76
9.59
7.84
5.72
3.4
0.92
-1.75
-4.63
-7.65
-10.61
-13.29
-15.58
-17.47
-19.08
-20.55
-21.99
-23.48
-25.1
-26.87
-28.65
-30.06
-30.39
-28.81
-24.64
-17.66
-8.29
2.44
13.18
22.68
30.01
34.79
37.07
37.2
35.58
32.59
28.51
23.68
18.55
13.67
9.64
6.88
5.49
5.23
5.68
6.4
7.1
7.68
8.11
8.37
8.36
7.91
6.93
5.41
3.45
1.18
-1.34
-4.12
-7.17
-10.45
-13.72
-16.64
-18.91
-20.4
-21.21
-21.68
-22.22
-23.15
-24.61
-26.44
-28.14
-28.97
-28.08
-24.77
-18.73
-10.26
-0.27
9.94
19.02
25.96
30.3
32.14
31.97
30.46
28.19
25.63
22.98
20.26
17.44
14.47
11.48
8.72
6.52
5.21
4.93
5.62
7.01
8.69
10.23
11.25
11.47
10.69
8.87
6.07
2.52
-1.45
-5.51
-9.38
-12.88
-15.98
-18.69
-21.09
-23.16
-24.9
-26.25
-27.23
-27.98
-28.73
-29.76
-31.22
-33.08
-35.0
-36.38
-36.47
-34.57
-30.22
-23.36
-14.4
-4.15
6.34
15.97
23.84
29.39
32.47
33.25
32.09
29.4
25.61
21.14
16.46
12.11
8.6
6.31
5.35
5.5
6.31
7.25
7.86
7.91
7.38
6.44
5.28
4.07
2.84
1.5
-0.13
-2.18
-4.71
-7.62
-10.69
-13.63
-16.24
-18.4
-20.1
-21.44
-22.57
-23.68
-24.94
-26.44
-27.99
-29.1
-28.97
-26.78
-21.98
-14.57
-5.21
5.01
14.81
23.16
29.44
33.5
35.52
35.83
34.78
32.7
29.91
26.69
23.39
20.34
17.77
15.86
14.6
13.86
13.47
13.26
13.12
13.05
13.05
13.11
13.13
12.93
12.25
10.9
8.8
6.02
2.83
-0.42
-3.44
-6.05
-8.27
-10.25
-12.2
-14.23
-16.33
-18.36
-20.07
-21.3
-21.96
-22.17
-22.21
-22.45
-23.28
-24.92
-27.23
-29.64
-31.2
-30.78
-27.52
-21.14
-12.07
-1.4
9.51
19.38
27.33
32.93
36.17
37.25
36.56
34.52
31.64
28.42
25.23
22.3
19.67
17.27
15.07
13.11
11.51
10.41
9.91
10.04
10.74
11.82
13.04
14.1
14.66
14.47
13.43
11.62
9.31
6.81
4.4
2.23
0.27
-1.61
-3.54
-5.6
-7.69
-9.66
-11.31
-12.54
-13.35
-13.96
-14.59
-15.47
-16.71
-18.22
-19.78
-21.14
-22.16
-22.83
-23.38
-24.09
-25.3
-27.18
-29.66
-32.35
-34.61
-35.64
-34.68
-31.23
-25.2
-17.0
-7.43
2.51
11.81
19.72
25.83
30.07
32.51
33.31
32.61
30.58
27.54
23.94
20.36
17.36
15.3
14.27
14.13
14.61
15.47
16.56
17.79
19.06
20.2
20.95
21.06
20.38
18.87
16.67
13.94
10.82
7.37
3.59
-0.51
-4.77
-8.86
-12.35
-14.9
-16.39
-16.98
-17.01
-16.82
-16.63
-16.49
-16.36
-16.24
-16.23
-16.47
-17.08
-18.1
-19.44
-20.95
-22.43
-23.61
-24.03
-23.08
-20.05
-14.46
-6.33
3.63
14.19
24.02
32.15
38.29
42.83
46.42
49.49
51.94
53.14
52.2
48.44
41.67
32.34
21.34
9.8
-1.17
-10.7
-18.13
-23.16
-25.74
-26.11
-24.7
-22.09
-18.92
-15.89
-13.63
-12.62
-13.04
-14.64
-16.78
-18.55
-19.04
-17.69
-14.52
-10.19
-5.82
-2.61
-1.44
-2.64
-5.84
-10.18
-14.55
-18.0
-20.0
-20.57
-20.27
-19.98
-20.56
-22.47
-25.54
-28.88
-31.16
-31.03
-27.66
-21.08
-12.17
-2.3
7.12
15.06
20.98
24.76
26.41
26.06
23.99
20.77
17.21
14.23
12.39
11.7
11.56
11.12
9.78
7.52
4.96
3.01
2.39
3.35
5.5
8.05
10.16
11.24
11.01
9.54
7.0
3.67
-0.19
-4.31
-8.44
-12.38
-16.0
-19.3
-22.2
-24.59
-26.2
-26.74
-26.01
-24.1
-21.44
-18.74
-16.81
-16.3
-17.51
-20.25
-23.85
-27.28
-29.4
-29.22
-26.14
-20.16
-11.87
-2.31
7.26
15.73
22.33
26.77
29.16
29.91
29.47
28.24
26.45
24.19
21.49
18.44
15.18
11.9
8.81
6.05
3.67
1.68
0.12
-0.94
-1.42
-1.31
-0.69
0.27
1.34
2.3
2.95
3.15
2.71
1.49
-0.61
-3.5
-6.92
-10.52
-13.94
-17.0
-19.74
-22.32
-24.93
-27.57
-30.06
-31.97
-32.8
-32.03
-29.27
-24.28
-17.08
-8.01
2.24
12.7
22.31
30.15
35.64
38.65
39.4
38.36
36.0
32.76
28.98
24.96
20.98
17.32
14.21
11.79
10.03
8.84
8.06
7.61
7.45
7.59
7.99
8.55
9.03
9.13
8.64
7.49
5.76
3.62
1.2
-1.44
-4.29
-7.32
-10.43
-13.36
-15.88
-17.83
-19.27
-20.41
-21.46
-22.5
-23.38
-23.74
-23.11
-21.04
-17.18
-11.32
-3.46
6.04
16.37
26.31
34.36
39.09
39.61
35.79
28.32
18.42
7.46
-3.47
-13.67
-22.87
-31.08
-38.46
-45.17
-51.38
-57.15
-62.43
-67.03
-70.64
-72.88
-73.39
-71.89
-68.3
-62.73
-55.48
-47.1
-38.3
-29.92
-22.67
-17.03
-13.05
-10.36
-8.41
-6.67
-4.88
-3.15
-1.88
-1.46
-2.12
-3.76
-6.01
-8.39
-10.41
-11.72
-12.07
-11.27
-9.18
-5.71
-0.9
5.05
11.79
18.88
25.79
32.06
37.26
41.01
43.04
43.21
41.58
38.45
34.3
29.72
25.31
21.49
18.49
16.27
14.7
13.6
12.92
12.69
12.94
13.62
14.52
15.32
15.71
15.5
14.75
13.72
12.73
12.04
11.71
11.5
11.05
9.96
7.95
4.94
1.09
-3.28
-7.7
-11.62
-14.44
-15.53
-14.35
-10.57
-4.25
4.12
13.59
22.99
31.18
37.29
40.87
41.87
40.59
37.52
33.31
28.68
24.35
20.94
18.73
17.63
17.18
16.7
15.7
14.0
11.85
9.77
8.23
7.43
7.22
7.24
7.14
6.67
5.79
4.47
2.7
0.39
-2.52
-6.0
-9.85
-13.73
-17.31
-20.31
-22.59
-24.14
-24.94
-24.89
-23.71
-21.04
-16.59
-10.3
-2.52
6.07
14.62
22.33
28.67
33.35
36.32
37.53
36.98
34.74
31.0
26.23
21.11
16.37
12.61
10.17
9.05
8.96
9.45
10.04
10.35
10.15
9.35
8.0
6.25
4.28
2.31
0.45
-1.24
-2.83
-4.44
-6.18
-8.1
-10.09
-12.02
-13.73
-15.2
-16.53
-17.93
-19.59
-21.64
-23.99
-26.35
-28.24
-28.97
-27.84
-24.32
-18.27
-10.04
-0.5
9.27
18.24
25.69
31.33
35.16
37.31
37.84
36.81
34.32
30.71
26.56
22.54
19.23
16.9
15.46
14.52
13.61
12.42
10.94
9.5
8.6
8.72
10.03
12.27
14.83
16.93
18.01
17.97
17.17
16.19
15.51
15.15
14.61
13.08
9.72
4.04
-3.97
-13.82
-24.51
-34.63
-42.58
-46.93
-46.95
-43.16
-37.42
-32.45
-30.81
-33.78
-40.83
-49.86
-58.24
-63.93
-66.12
-65.1
-61.61
-56.24
-49.19
-40.62
-31.04
-21.29
-12.22
-4.13
3.41
11.39
20.72
31.89
44.98
59.85
76.29
93.88
111.47
127.07
138.2
143.0
141.37
135.25
127.86
122.11
119.03
117.26
113.79
105.65
91.53
72.53
51.74
32.87
18.81
10.7
7.85
8.47
10.55
12.58
13.74
13.74
12.47
9.84
5.64
-0.26
-7.77
-16.48
-25.6
-34.1
-40.99
-45.61
-47.92
-48.65
-49.09
-50.52
-53.68
-58.3
-63.29
-67.28
-69.32
-69.34
-68.06
-66.49
-65.45
-65.25
-65.79
-66.79
-67.99
-69.18
-70.08
-70.3
-69.41
-67.13
-63.55
-59.01
-53.97
-48.78
-43.54
-38.14
-32.49
-26.7
-21.05
-15.84
-11.11
-6.66
-2.24
2.29
6.79
10.8
13.68
14.88
14.19
11.88
8.6
5.0
1.79
-0.43
-1.26
-0.67
1.04
3.42
6.15
9.06
11.67
13.71
15.2
16.23
16.69
16.25
14.7
12.19
9.21
5.25
0.01
-6.3
-13.07
-19.91
-26.95
-34.57
-43.01
-52.23
-63.5
-76.93
-90.78
-102.13
-108.8
-110.75
-110.06
-109.81
-112.84
-122.82
-140.64
-163.64
-186.74
-204.77
-214.09
-212.88
-200.79
-166.0
-107.27
-35.75
30.61
78.92
107.14
120.87
127.63
132.56
138.51
143.73
146.38
146.44
145.39
144.19
142.13
136.42
125.31
109.29
89.6
69.83
54.78
48.37
51.21
60.44
71.5
80.87
87.43
91.38
94.58
99.36
106.96
116.51
125.1
129.48
128.02
121.69
113.39
107.38
107.58
115.79
130.45
146.77
158.19
158.98
146.14
119.85
83.29
41.62
0.94
-32.63
-53.91
-60.02
-51.33
-32.19
-10.1
6.48
11.09
1.74
-18.53
-43.05
-64.86
-79.27
-85.39
-85.73
-84.35
-84.5
-86.97
-90.1
-90.81
-87.27
-78.75
-65.55
-48.69
-29.94
-12.29
0.1
2.98
-6.18
-27.79
-56.78
-83.8
-99.75
-101.3
-93.39
-86.92
-93.29
-118.85
-164.69
-223.12
-280.07
-320.38
-333.24
-315.52
-272.09
-214.04
-156.12
-116.52
-106.8
-126.92
-166.2
-209.24
-243.21
-261.92
-265.92
-237.46
-172.61
-83.08
11.19
95.88
165.95
220.45
259.06
282.06
291.59
287.47
271.05
245.91
217.1
189.31
166.8
151.36
144.44
145.93
150.63
152.52
147.71
136.4
122.28
110.29
104.22
104.7
107.91
105.65
90.77
61.03
19.03
-29.46
-78.78
-125.66
-169.27
-210.14
-248.92
-283.8
-309.96
-321.73
-314.71
-288.01
-244.43
-189.14
-128.02
-66.54
-7.79
47.97
102.76
159.59
220.55
285.3
350.37
409.34
454.2
477.62
475.05
446.51
396.87
334.18
266.94
201.62
140.91
84.15
29.18
-25.14
-76.84
-120.28
-147.59
-151.21
-127.04
-76.52
-7.03
69.69
140.88
196.6
232.13
248.28
249.17
239.26
220.87
193.9
157.24
110.9
57.16
0.09
-56.05
-108.34
-155.43
-196.39
-229.1
-249.81
-254.52
-241.2
-211.95
-172.88
-132.16
-96.97
-71.08
-54.29
-43.73
-35.84
-28.06
-19.63
-11.18
-4.17
-0.31
-1.1
-7.55
-19.79
-36.64
-55.44
-72.56
-84.31
-88.2
-83.78
-72.6
-57.7
-42.39
-29.24
-19.51
-13.27
-9.82
-8.14
-7.04
-5.07
-0.41
8.91
24.36
46.07
72.24
99.61
123.87
140.73
147.26
142.26
126.34
101.35
69.47
32.7
-7.2
-48.52
-89.2
-126.7
-158.46
-182.61
-198.58
-207.6
-212.51
-217.12
-225.33
-240.32
-264.11
-297.19
-337.96
-382.51
-424.86
-458.12
-476.25
-475.77
-456.4
-420.69
-372.87
-316.81
-255.39
-190.71
-124.32
-58.07
5.95
65.9
120.7
169.96
213.58
251.02
280.89
301.37
310.68
307.54
291.65
263.78
225.79
180.73
132.77
86.78
47.71
19.49
4.31
1.88
9.39
22.04
34.85
44.54
51.09
57.81
69.64
90.67
121.66
159.27
197.31
229.21
250.73
261.47
264.43
263.75
262.76
262.59
261.94
257.97
247.55
228.84
202.23
170.37
136.53
103.13
70.6
37.22
0.14
-43.53
-94.91
-152.41
-211.65
-267.2
-313.15
-344.18
-356.7
-350.02
-327.45
-294.06
-254.46
-210.82
-165.15
-119.07
-74.54
-34.0
-0.0
24.04
37.62
44.11
50.16
58.27
67.79
76.76
84.11
90.33
93.83
94.02
91.93
91.48
90.99
87.23
77.92
62.7
41.44
8.7
-40.28
-105.48
-178.23
-252.0
-319.51
-373.12
-405.81
-388.07
-310.35
-193.53
-94.33
-25.84
10.66
18.92
-0.7
-45.25
-108.1
-183.21
-260.62
-325.81
-360.83
-358.66
-321.1
-256.64
-176.9
-94.11
-21.57
32.82
69.01
94.93
115.57
133.84
151.55
170.7
193.42
219.5
248.22
278.59
309.82
336.41
351.99
352.72
339.39
316.62
289.38
261.57
235.12
210.59
186.15
160.34
133.28
106.39
80.93
56.68
32.5
7.67
-17.04
-40.04
-59.28
-72.93
-80.11
-81.21
-77.6
-71.0
-62.96
-54.52
-46.16
-37.99
-30.08
-22.73
-16.6
-12.54
-11.18
-12.52
-15.59
-18.75
-20.14
-18.39
-13.13
-5.12
4.08
12.71
19.43
23.62
25.22
24.36
20.87
14.19
3.83
-10.06
-26.33
-42.9
-57.52
-68.61
-75.77
-79.66
-81.5
-82.32
-82.6
-82.4
-81.92
-81.74
-82.53
-84.23
-85.41
-83.51
-76.0
-61.65
-41.49
-18.31
4.75
25.94
45.66
65.97
88.53
113.11
137.3
157.74
172.04
179.97
183.64
186.18
190.55
197.39
205.08
211.11
213.73
212.82
209.74
206.4
204.18
204.28
205.95
207.24
206.86
204.89
202.31
199.5
195.48
188.28
177.79
164.11
148.16
132.32
119.74
112.93
112.5
116.91
122.99
128.53
128.93
118.21
92.08
49.84
-5.27
-67.51
-130.34
-199.88
-269.05
-323.75
-352.71
-354.3
-335.3
-304.38
-268.12
-230.12
-192.0
-152.28
-110.71
-72.94
-43.11
-22.61
-9.82
-1.56
5.04
11.32
18.45
25.44
30.48
33.26
34.82
36.26
37.1
35.14
27.67
14.24
-4.22
-25.77
-47.62
-67.47
-84.27
-98.05
-109.19
-117.79
-123.09
-125.08
-124.84
-123.71
-122.44
-120.4
-115.82
-106.85
-92.98
-75.49
-57.4
-42.14
-31.95
-27.26
-27.07
-29.88
-34.65
-41.04
-49.0
-58.22
-67.77
-76.25
-82.41
-85.48
-85.44
-82.74
-77.96
-71.34
-62.84
-52.28
-39.61
-25.17
-9.6
6.24
21.49
35.44
47.51
57.2
64.06
67.73
68.12
65.56
60.75
54.71
48.44
42.66
37.68
33.52
30.15
27.66
26.21
25.9
26.58
27.74
28.67
28.78
27.85
26.12
24.01
21.87
19.7
17.1
13.56
8.74
2.66
-4.24
-11.35
-18.07
-24.07
-29.3
-33.97
-38.49
-43.28
-48.72
-54.91
-61.59
-68.01
-73.02
-75.33
-73.88
-68.2
-58.55
-45.82
-31.13
-15.51
0.21
15.41
29.45
41.59
51.16
57.72
61.32
62.52
62.16
60.93
59.2
56.93
53.93
50.17
45.95
41.83
38.47
36.32
35.42
35.47
35.96
36.33
36.16
35.14
33.12
30.04
26.0
21.24
16.17
11.18
6.55
2.28
-1.93
-6.52
-11.88
-18.15
-25.09
-32.25
-39.11
-45.39
-51.13
-56.77
-62.8
-69.54
-76.79
-83.74
-89.09
-91.43
-89.78
-83.89
-74.32
-62.14
-48.54
-34.44
-20.47
-7.09
5.2
15.73
23.75
28.69
30.44
29.44
26.55
22.73
18.68
14.64
10.43
5.73
0.41
-5.21
-10.43
-14.35
-16.34
-16.29
-14.34
-10.6
-4.73
3.77
14.85
27.28
38.62
46.14
48.07
44.48
36.92
27.31
16.57
4.35
-10.19
-26.97
-44.26
-59.09
-68.79
-72.45
-71.39
-68.06
-64.47
-61.04
-56.65
-49.64
-38.92
-24.46
-6.93
12.87
34.35
56.86
79.26
99.78
116.43
127.76
133.44
134.28
131.65
126.82
120.51
112.96
104.3
94.96
85.65
77.1
69.68
63.35
57.8
52.73
48.02
43.74
39.96
36.62
33.42
29.97
25.92
21.04
15.32
8.88
1.94
-5.19
-12.17
-18.67
-24.42
-29.37
-33.64
-37.56
-41.52
-45.83
-50.68
-56.05
-61.67
-67.03
-71.36
-73.79
-73.51
-70.03
-63.33
-53.82
-42.3
-29.68
-16.86
-4.64
6.27
15.29
21.99
26.19
28.02
27.89
26.43
24.29
21.98
19.81
17.88
16.15
14.58
13.18
12.0
11.11
10.5
10.06
9.61
8.98
8.12
7.05
5.83
4.45
2.84
0.86
-1.55
-4.36
-7.48
-10.75
-14.07
-17.36
-20.56
-23.54
-26.15
-28.28
-29.96
-31.42
-33.02
-35.13
-37.94
-41.32
-44.77
-47.51
-48.64
-47.39
-43.3
-36.33
-26.94
-15.96
-4.44
6.53
16.06
23.52
28.66
31.54
32.46
31.86
30.2
27.87
25.19
22.36
19.56
16.94
14.67
12.89
11.71
11.14
11.12
11.48
12.04
12.65
13.18
13.54
13.63
13.33
12.5
11.08
9.06
6.52
3.61
0.48
-2.75
-5.99
-9.25
-12.56
-15.96
-19.46
-23.04
-26.64
-30.13
-33.32
-35.9
-37.44
-37.38
-35.21
-30.63
-23.74
-15.03
-5.32
4.5
13.67
21.7
28.34
33.4
36.77
38.34
38.16
36.51
33.87
30.82
27.87
25.32
23.24
21.54
20.13
18.9
17.8
16.75
15.69
14.57
13.46
12.51
11.87
11.6
11.55
11.36
10.62
9.02
6.49
3.17
-0.62
-4.6
-8.58
-12.48
-16.27
-19.89
-23.27
-26.39
-29.39
-32.48
-35.78
-39.22
-42.28
-44.17
-43.95
-40.9
-34.76
-25.85
-14.99
-3.25
8.3
18.76
27.5
34.2
38.77
41.31
42.06
41.32
39.43
36.75
33.61
30.35
27.27
24.56
22.33
20.59
19.31
18.45
17.95
17.76
17.72
17.65
17.32
16.55
15.31
13.67
11.78
9.77
7.67
5.39
2.78
-0.26
-3.75
-7.59
-11.56
-15.4
-18.88
-21.87
-24.42
-26.74
-29.14
-31.91
-35.17
-38.75
-42.1
-44.44
-44.85
-42.55
-37.14
-28.68
-17.76
-5.38
7.23
18.92
28.76
36.24
41.22
43.87
44.51
43.55
41.38
38.39
34.93
31.27
27.63
24.11
20.75
17.63
14.91
12.81
11.55
11.22
11.7
12.65
13.55
13.9
13.38
11.91
9.65
6.91
3.93
0.87
-2.25
-5.45
-8.77
-12.13
-15.45
-18.67
-21.75
-24.71
-27.58
-30.36
-33.03
-35.58
-38.0
-40.21
-41.96
-42.74
-41.88
-38.71
-32.81
-24.25
-13.68
-2.15
9.06
18.85
26.46
31.61
34.38
35.09
34.12
31.84
28.59
24.77
20.79
17.02
13.75
11.06
8.92
7.3
6.22
5.82
6.2
7.37
9.12
11.03
12.63
13.51
13.42
12.32
10.29
7.46
4.01
0.14
-3.91
-7.86
-11.48
-14.61
-17.25
-19.45
-21.38
-23.2
-25.11
-27.34
-30.06
-33.33
-36.97
-40.58
-43.5
-45.05
-44.66
-42.0
-37.08
-30.11
-21.54
-11.94
-1.98
7.63
16.2
23.22
28.38
31.63
33.14
33.15
31.94
29.79
26.95
23.69
20.32
17.14
14.44
12.41
11.09
10.46
10.38
10.73
11.42
12.37
13.49
14.62
15.48
15.75
15.13
13.53
11.09
8.15
5.1
2.27
-0.21
-2.42
-4.54
-6.76
-9.16
-11.74
-14.37
-16.88
-19.1
-20.94
-22.45
-23.81
-25.35
-27.41
-30.16
-33.5
-36.88
-39.41
-40.06
-37.99
-32.81
-24.78
-14.76
-3.97
6.34
15.22
22.12
26.9
29.69
30.71
30.2
28.41
25.66
22.35
18.96
15.88
13.41
11.6
10.35
9.47
8.82
8.36
8.15
8.28
8.71
9.3
9.79
9.92
9.55
8.69
7.39
5.73
3.66
1.15
-1.74
-4.85
-7.84
-10.42
-12.48
-14.16
-15.76
-17.57
-19.66
-21.9
-24.01
-25.79
-27.26
-28.66
-30.3
-32.32
-34.56
-36.51
-37.43
-36.62
-33.59
-28.23
-20.83
-12.02
-2.62
6.53
14.72
21.48
26.64
30.27
32.6
33.83
34.11
33.47
31.88
29.38
26.18
22.6
19.07
15.97
13.56
11.94
11.1
10.92
11.23
11.81
12.39
12.66
12.37
11.39
9.75
7.63
5.32
3.04
0.93
-1.05
-3.04
-5.21
-7.65
-10.35
-13.22
-16.06
-18.7
-21.0
-22.91
-24.44
-25.71
-26.94
-28.34
-30.13
-32.32
-34.68
-36.68
-37.58
-36.65
-33.39
-27.68
-19.89
-10.78
-1.32
7.56
15.12
20.94
24.95
27.26
28.13
27.81
26.46
24.23
21.31
17.94
14.42
11.03
7.95
5.26
2.93
1.02
-0.31
-0.76
-0.08
1.72
4.27
6.85
8.65
9.06
7.91
5.5
2.45
-0.57
-3.1
-5.02
-6.51
-7.88
-9.38
-11.14
-13.13
-15.2
-17.25
-19.16
-20.94
-22.63
-24.32
-26.11
-28.05
-30.13
-32.14
-33.71
-34.29
-33.33
-30.41
-25.46
-18.76
-10.89
-2.56
5.52
12.78
18.8
23.33
26.26
27.62
27.6
26.42
24.34
21.59
18.36
14.91
11.53
8.54
6.22
4.68
3.9
3.72
3.98
4.56
5.36
6.31
7.25
7.98
8.26
7.92
6.84
5.04
2.68
-0.02
-2.74
-5.25
-7.38
-9.18
-10.82
-12.56
-14.55
-16.82
-19.15
-21.21
-22.52
-22.62
-21.17
-17.92
-12.89
-6.31
1.35
9.47
17.33
24.3
29.84
33.64
35.6
35.8
34.47
31.89
28.37
24.18
19.62
15.04
10.82
7.29
4.7
3.09
2.31
2.05
1.98
1.88
1.69
1.46
1.29
1.15
0.89
0.22
-1.06
-3.06
-5.7
-8.76
-11.97
-15.11
-18.05
-20.73
-23.14
-25.32
-27.39
-29.45
-31.62
-33.81
-35.68
-36.57
-35.67
-32.27
-26.07
-17.41
-7.2
3.27
12.73
20.29
25.6
28.76
30.15
30.21
29.21
27.35
24.76
21.65
18.31
15.0
11.9
9.09
6.55
4.35
2.57
1.38
0.89
1.05
1.65
2.34
2.79
2.74
2.13
1.02
-0.43
-2.08
-3.88
-5.88
-8.21
-11.01
-14.27
-17.82
-21.24
-24.07
-25.93
-26.77
-26.9
-26.87
-27.26
-28.37
-30.12
-32.02
-33.34
-33.27
-31.14
-26.54
-19.49
-10.47
-0.32
9.84
18.96
26.26
31.43
34.52
35.83
35.69
34.35
32.0
28.87
25.3
21.74
18.59
16.17
14.56
13.7
13.39
13.41
13.55
13.67
13.7
13.62
13.45
13.15
12.66
11.82
10.47
8.44
5.68
2.22
-1.77
-6.01
-10.19
-14.02
-17.31
-20.05
-22.37
-24.57
-26.88
-29.4
-31.98
-34.19
-35.46
-35.12
-32.67
-27.84
-20.77
-11.98
-2.29
7.35
16.09
23.28
28.63
32.08
33.75
33.88
32.76
30.76
28.28
25.7
23.27
21.05
18.94
16.81
14.59
12.4
10.45
8.98
8.12
7.78
7.74
7.64
7.19
6.25
4.8
2.97
0.91
-1.28
-3.59
-6.07
-8.82
-11.81
-14.91
-17.87
-20.44
-22.42
-23.81
-24.78
-25.64
-26.68
-28.09
-29.88
-31.91
-33.85
-35.24
-35.53
-34.15
-30.68
-24.98
-17.34
-8.43
0.78
9.34
16.49
21.79
25.2
26.95
27.39
26.87
25.63
23.79
21.39
18.5
15.31
12.14
9.37
7.3
6.09
5.65
5.73
6.06
6.42
6.73
6.96
7.09
7.1
6.95
6.64
6.21
5.66
4.94
3.89
2.29
-0.04
-3.14
-6.88
-10.99
-15.08
-18.83
-21.98
-24.45
-26.28
-27.68
-28.92
-30.21
-31.7
-33.32
-34.85
-35.97
-36.31
-35.53
-33.32
-29.44
-23.78
-16.51
-8.04
0.89
9.46
16.88
22.61
26.42
28.33
28.54
27.37
25.17
22.41
19.6
17.21
15.53
14.62
14.28
14.18
14.04
13.73
13.28
12.8
12.38
12.01
11.61
11.11
10.5
9.79
8.97
7.99
6.76
5.18
3.23
0.96
-1.52
-4.1
-6.68
-9.17
-11.52
-13.64
-15.5
-17.08
-18.48
-19.82
-21.21
-22.68
-24.03
-24.91
-24.87
-23.48
-20.49
-15.93
-10.06
-3.33
3.81
10.9
17.5
23.17
27.44
29.89
30.29
28.7
25.5
21.26
16.66
12.26
8.48
5.49
3.32
1.85
0.91
0.31
-0.05
-0.22
-0.21
-0.02
0.31
0.64
0.78
0.5
-0.4
-2.04
-4.38
-7.25
-10.36
-13.36
-15.98
-18.1
-19.8
-21.35
-23.03
-25.01
-27.25
-29.5
-31.28
-32.03
-31.2
-28.4
-23.45
-16.54
-8.2
0.76
9.44
17.09
23.18
27.52
30.14
31.18
30.78
29.09
26.3
22.72
18.74
14.83
11.35
8.48
6.24
4.56
3.39
2.76
2.72
3.26
4.22
5.21
5.83
5.65
4.5
2.43
-0.29
-3.28
-6.22
-8.94
-11.44
-13.91
-16.54
-19.48
-22.68
-25.91
-28.82
-30.94
-31.81
-31.05
-28.33
-23.45
-16.45
-7.7
2.03
11.67
20.07
26.32
29.99
31.19
30.46
28.47
25.78
22.7
19.33
15.71
11.99
8.46
5.43
3.16
1.71
0.92
0.53
0.25
-0.13
-0.7
-1.46
-2.36
-3.38
-4.56
-5.99
-7.75
-9.91
-12.48
-15.37
-18.51
-21.86
-25.44
-29.16
-32.73
-35.5
-36.56
-34.98
-30.19
-22.33
-12.26
-1.35
8.96
17.6
24.11
28.53
31.18
32.38
32.28
30.94
28.51
25.24
21.58
17.97
14.76
12.11
10.0
8.31
6.95
5.86
5.03
4.45
4.04
3.64
3.03
1.97
0.29
-2.02
-4.79
-7.7
-10.45
-12.86
-15.0
-17.12
-19.55
-22.53
-26.02
-29.73
-33.08
-35.31
-35.64
-33.43
-28.35
-20.56
-10.72
0.11
10.69
19.91
27.03
31.77
34.28
35.01
34.44
33.0
30.97
28.47
25.56
22.33
18.97
15.81
13.16
11.28
10.22
9.87
9.98
10.31
10.67
10.93
10.97
10.68
10.0
8.9
7.46
5.77
3.91
1.91
-0.26
-2.65
-5.28
-8.09
-10.98
-13.76
-16.27
-18.36
-19.94
-21.05
-21.86
-22.63
-23.66
-25.2
-27.34
-30.07
-33.19
-36.34
-39.02
-40.66
-40.72
-38.81
-34.88
-29.24
-22.5
-15.33
-8.26
-1.59
4.61
10.36
15.66
20.46
24.63
28.04
30.61
32.27
32.96
32.7
31.59
29.91
28.1
26.64
25.89
25.94
26.59
27.44
28.07
28.19
27.71
26.7
25.31
23.66
21.8
19.72
17.39
14.79
11.92
8.78
5.37
1.77
-1.92
-5.48
-8.68
-11.39
-13.66
-15.75
-18.01
-20.67
-23.66
-26.52
-28.53
-28.92
-27.15
-23.11
-17.13
-9.88
-2.17
5.24
11.74
16.94
20.67
22.92
23.85
23.71
22.8
21.4
19.69
17.8
15.76
13.57
11.29
9.04
6.99
5.34
4.22
3.64
3.57
3.87
4.33
4.73
4.78
4.25
3.0
1.04
-1.37
-3.89
-6.18
-8.04
-9.54
-10.9
-12.41
-14.23
-16.33
-18.51
-20.55
-22.29
-23.7
-24.88
-25.99
-27.18
-28.57
-30.19
-31.93
-33.46
-34.28
-33.73
-31.25
-26.56
-19.77
-11.45
-2.46
6.23
13.8
19.69
23.67
25.79
26.33
25.64
24.12
22.08
19.74
17.29
14.89
12.68
10.8
9.36
8.36
7.74
7.41
7.24
7.14
7.05
6.92
6.68
6.29
5.66
4.77
3.59
2.13
0.44
-1.39
-3.26
-5.06
-6.71
-8.16
-9.44
-10.64
-11.85
-13.12
-14.44
-15.71
-16.9
-17.99
-19.05
-20.2
-21.53
-23.1
-24.92
-26.99
-29.26
-31.57
-33.54
-34.59
-34.0
-31.2
-25.99
-18.67
-10.03
-1.06
7.3
14.42
19.98
23.93
26.32
27.25
26.88
25.47
23.42
21.12
18.89
16.89
15.12
13.49
11.94
10.52
9.37
8.66
8.46
8.73
9.33
10.05
10.65
10.92
10.68
9.8
8.23
6.08
3.54
0.93
-1.46
-3.45
-5.06
-6.48
-8.03
-10.0
-12.5
-15.45
-18.6
-21.64
-24.33
-26.56
-28.34
-29.72
-30.75
-31.36
-31.45
-30.77
-29.04
-25.96
-21.34
-15.19
-7.8
0.28
8.35
15.75
21.96
26.69
29.84
31.45
31.58
30.36
27.98
24.74
21.05
17.4
14.23
11.88
10.43
9.75
9.58
9.65
9.78
9.91
10.06
10.22
10.29
10.09
9.47
8.36
6.83
5.01
3.06
1.08
-0.86
-2.74
-4.57
-6.36
-8.15
-10.01
-12.02
-14.19
-16.44
-18.69
-20.86
-22.91
-24.91
-26.93
-29.04
-31.22
-33.31
-34.96
-35.72
-35.02
-32.39
-27.6
-20.77
-12.44
-3.43
5.34
13.14
19.5
24.25
27.46
29.3
29.95
29.59
28.37
26.47
24.1
21.5
18.88
16.51
14.56
13.19
12.44
12.27
12.53
13.07
13.69
14.24
14.6
14.64
14.27
13.46
12.24
10.72
9.01
7.18
5.22
3.11
0.82
-1.63
-4.17
-6.62
-8.81
-10.65
-12.23
-13.71
-15.25
-16.98
-18.92
-20.97
-22.85
-24.23
-24.93
-25.03
-24.85
-24.72
-24.78
-24.81
-24.07
-21.46
-15.8
-6.62
5.51
19.06
31.91
42.01
47.87
49.4
48.04
46.44
46.72
49.67
54.44
58.99
61.03
58.68
51.95
42.99
35.8
33.38
36.88
45.35
56.05
64.85
65.95
53.8
24.94
-19.47
-74.84
-132.64
-182.07
-213.22
-221.01
-208.42
-184.3
-159.07
-139.39
-128.27
-124.27
-123.25
-120.96
-108.55
-82.68
-46.92
-14.94
11.74
36.41
63.26
92.6
122.06
148.16
167.25
178.32
183.86
189.57
199.17
213.4
230.07
245.43
255.58
257.07
248.59
231.49
209.7
186.35
163.4
141.76
121.7
102.97
84.6
65.96
47.35
30.5
16.58
5.93
-2.17
-9.14
-16.69
-26.25
-38.04
-50.8
-62.17
-70.32
-74.6
-75.59
-74.51
-72.66
-70.93
-69.67
-68.8
-68.04
-67.2
-66.05
-64.3
-61.73
-58.39
-54.79
-51.66
-49.7
-49.17
-49.82
-51.02
-52.0
-51.96
-50.07
-45.59
-38.04
-27.6
-15.19
-2.34
9.34
18.82
25.92
31.11
34.97
37.78
39.45
39.87
39.34
38.62
38.63
39.9
42.24
44.78
46.6
47.24
46.92
46.3
45.85
45.43
44.19
40.97
34.92
25.75
13.52
-1.86
-20.85
-43.95
-70.64
-98.36
-122.53
-138.09
-141.92
-134.88
-121.97
-110.57
-107.26
-115.41
-134.66
-161.99
-193.76
-226.47
-256.43
-279.16
-289.73
-284.6
-263.83
-232.1
-197.16
-166.42
-143.21
-125.31
-106.6
-80.81
-45.35
-2.78
40.46
77.34
103.36
117.9
123.25
122.3
116.69
106.3
90.32
69.13
45.33
23.37
7.7
0.71
1.48
6.64
12.02
14.68
14.03
11.62
9.88
10.69
14.44
19.9
25.02
27.77
27.08
23.08
16.85
9.79
2.94
-3.37
-9.43
-15.72
-22.52
-29.7
-36.7
-42.91
-47.76
-50.94
-52.29
-51.76
-49.34
-45.13
-39.33
-32.3
-24.48
-16.4
-8.54
-1.4
4.69
9.55
13.21
15.89
17.83
19.16
19.87
19.86
19.11
17.81
16.33
15.08
14.38
14.33
14.83
15.73
16.95
18.48
20.33
22.35
24.23
25.59
26.09
25.68
24.6
23.21
21.84
20.54
19.09
17.11
14.39
10.97
7.2
3.52
0.28
-2.45
-4.88
-7.43
-10.44
-13.99
-17.71
-20.83
-22.36
-21.38
-17.34
-10.24
-0.55
10.89
23.21
35.58
47.37
58.07
67.29
74.71
80.16
83.65
85.41
85.72
84.89
83.09
80.39
76.83
72.52
67.68
62.64
57.76
53.23
49.07
45.09
40.95
36.35
31.12
25.24
18.86
12.21
5.56
-0.85
-6.86
-12.34
-17.23
-21.52
-25.3
-28.76
-32.18
-35.78
-39.65
-43.64
-47.39
-50.52
-52.81
-54.29
-55.3
-56.28
-57.68
-59.71
-62.38
-65.41
-68.29
-70.29
-70.59
-68.43
-63.29
-55.12
-44.38
-31.96
-18.99
-6.63
4.18
12.81
19.05
23.06
25.32
26.52
27.28
28.03
28.88
29.74
30.41
30.81
31.1
31.6
32.62
34.32
36.58
39.07
41.36
43.09
44.12
44.51
44.46
44.14
43.63
42.84
41.6
39.7
37.03
33.63
29.66
25.39
21.04
16.67
12.18
7.32
1.81
-4.46
-11.39
-18.68
-25.9
-32.55
-38.08
-41.93
-43.5
-42.4
-38.59
-32.63
-25.62
-18.92
-13.67
-10.43
-9.11
-9.22
-10.32
-12.3
-15.35
-19.65
-25.07
-31.02
-36.74
-41.55
-45.11
-47.32
-48.18
-47.61
-45.43
-41.53
-36.05
-29.43
-22.27
-15.2
-8.71
-3.09
1.52
5.18
8.11
10.57
12.71
14.53
15.84
16.47
16.57
16.63
17.34
19.2
22.27
26.17
30.34
34.37
38.22
42.2
46.68
51.77
57.28
62.98
68.81
74.9
81.4
88.22
95.13
101.7
107.57
112.63
117.07
121.25
125.3
128.78
130.74
130.23
126.43
118.78
107.04
91.42
72.51
50.96
27.35
2.03
-24.05
-50.24
-76.59
-103.98
-133.35
-164.87
-197.67
-229.67
-257.98
-277.99
-286.11
-281.56
-266.64
-244.81
-218.63
-189.01
-155.86
-119.56
-80.21
-40.92
-8.36
9.91
10.55
-2.46
-19.04
-27.36
-18.49
13.87
69.67
142.66
222.74
300.35
368.41
421.48
454.81
446.67
387.78
292.82
195.46
125.04
89.83
78.77
73.07
57.77
28.04
-8.25
-39.45
-58.5
-66.41
-68.78
-70.64
-73.56
-76.19
-76.48
-71.76
-62.25
-51.58
-45.25
-46.06
-52.91
-62.11
-69.91
-74.74
-76.99
-80.02
-88.62
-106.72
-133.71
-163.11
-184.62
-188.24
-168.53
-127.05
-72.35
-17.11
26.06
48.94
49.4
30.68
-2.23
-41.11
-77.22
-104.33
-120.58
-128.34
-131.86
-134.27
-135.5
-132.44
-121.01
-99.64
-70.28
-36.97
-2.86
32.2
71.32
117.64
171.1
226.56
274.84
306.55
316.28
305.34
281.18
253.47
229.81
212.46
198.47
181.98
158.04
125.0
84.6
39.98
-6.31
-53.1
-99.84
-145.3
-187.22
-223.03
-250.82
-269.73
-279.23
-278.28
-265.34
-239.31
-201.06
-153.89
-102.76
-52.59
-6.8
32.96
66.26
93.01
113.17
127.09
136.04
141.84
146.12
149.27
149.9
145.17
131.44
105.3
64.31
8.06
-60.73
-135.36
-205.29
-258.21
-283.15
-274.45
-234.05
-171.51
-101.08
-36.86
11.96
43.61
62.87
77.74
95.3
118.96
147.87
178.41
206.28
228.21
242.46
248.54
246.72
237.9
223.82
207.16
190.77
176.32
163.61
150.23
132.75
108.12
74.8
32.73
-17.17
-73.29
-133.27
-193.06
-246.64
-286.5
-305.86
-301.28
-274.37
-231.48
-181.27
-131.5
-86.64
-47.52
-12.66
19.52
49.2
75.0
94.98
107.89
113.7
113.52
108.41
98.52
82.62
58.18
22.38
-27.13
-90.83
-166.3
-247.12
-323.52
-384.4
-420.2
-425.92
-402.62
-356.75
-297.55
-233.69
-170.61
-109.68
-49.19
13.33
78.81
145.44
208.82
263.43
304.45
329.23
337.44
330.49
310.32
278.12
234.64
180.67
117.93
49.04
-23.22
-96.67
-169.52
-239.15
-301.1
-349.02
-376.42
-379.33
-358.11
-317.21
-263.08
-201.52
-136.11
-68.6
-0.37
66.41
129.01
185.6
236.42
283.51
329.01
373.08
412.97
443.94
461.2
461.69
444.98
412.58
367.04
311.21
248.32
182.13
116.97
56.82
4.08
-41.24
-81.53
-120.73
-163.03
-211.39
-266.24
-324.73
-380.72
-426.28
-454.18
-460.63
-446.71
-417.87
-381.26
-342.6
-304.01
-264.0
-219.21
-166.7
-105.83
-39.1
27.8
86.87
129.43
148.53
141.49
111.48
67.09
19.53
-20.88
-47.59
-58.48
-54.49
-37.54
-9.49
27.5
69.88
112.26
148.43
173.34
185.07
185.21
177.68
166.9
155.93
145.79
135.89
125.15
113.06
100.2
88.06
78.37
72.25
69.7
69.56
69.94
69.06
65.86
60.23
52.9
44.98
37.58
31.5
27.21
24.85
24.26
25.01
26.38
27.5
27.5
25.77
22.05
16.48
9.44
1.42
-7.14
-15.77
-23.94
-30.93
-35.82
-37.72
-35.97
-30.46
-21.82
-11.27
-0.37
9.52
17.59
23.71
28.34
32.06
35.24
37.84
39.5
39.85
38.74
36.41
33.32
29.95
26.62
23.5
20.71
18.4
16.77
15.96
15.87
16.15
16.29
15.84
14.53
12.28
9.16
5.28
0.73
-4.29
-9.52
-14.54
-18.91
-22.38
-24.97
-27.06
-29.25
-32.11
-35.94
-40.59
-45.41
-49.42
-51.64
-51.31
-48.16
-42.37
-34.49
-25.23
-15.34
-5.5
3.72
11.85
18.55
23.62
27.03
28.87
29.35
28.75
27.41
25.63
23.62
21.44
19.0
16.24
13.11
9.78
6.54
3.77
1.75
0.56
0.05
-0.18
-0.64
-1.82
-4.06
-7.44
-11.73
-16.46
-21.04
-24.93
-27.91
-30.12
-32.09
-34.49
-37.85
-42.26
-47.25
-51.85
-54.85
-55.26
-52.56
-46.88
-38.93
-29.71
-20.19
-11.12
-2.97
4.04
9.75
14.06
16.89
18.27
18.39
17.62
16.32
14.82
13.33
11.96
10.82
10.08
9.87
10.22
10.93
11.61
11.86
11.36
10.07
8.19
6.02
3.81
1.67
-0.44
-2.6
-4.88
-7.38
-10.19
-13.5
-17.5
-22.24
-27.43
-32.39
-36.1
-37.47
-35.78
-30.87
-23.27
-13.96
-4.12
5.24
13.43
20.11
25.19
28.68
30.68
31.32
30.8
29.36
27.27
24.77
22.03
19.21
16.43
13.83
11.52
9.59
8.05
6.81
5.69
4.51
3.11
1.37
-0.71
-3.13
-5.83
-8.7
-11.65
-14.64
-17.68
-20.91
-24.47
-28.46
-32.72
-36.79
-39.95
-41.35
-40.35
-36.67
-30.48
-22.43
-13.35
-4.14
4.35
11.51
17.01
20.7
22.6
22.88
21.79
19.65
16.82
13.58
10.23
7.1
4.44
2.36
0.79
-0.41
-1.42
-2.32
-3.24
-4.21
-5.23
-6.47
-8.25
-10.93
-14.65
-19.22
-24.13
-29.07
-33.62
-37.4
-40.45
-43.39
-47.12
-52.22
-58.49
-64.82
-70.09
-72.5
-70.16
-62.16
-49.42
-34.37
-19.97
-8.81
-2.43
-1.95
-6.5
-13.43
-19.78
-23.9
-25.72
-26.26
-27.02
-29.43
-35.45
-45.33
-56.81
-66.18
-69.81
-64.77
-49.4
-24.4
14.5
60.1
96.82
112.34
105.84
84.64
57.39
29.47
2.13
-25.52
-54.84
-84.96
-112.12
-132.12
-143.31
-146.77
-144.5
-137.85
-129.87
-118.5
-101.69
-77.57
-45.62
-7.72
32.29
70.25
102.86
128.36
146.64
158.88
163.12
161.7
158.26
155.57
155.18
157.35
161.1
164.1
162.75
157.49
145.37
125.47
99.24
70.14
42.35
19.2
2.4
-8.76
-16.11
-21.59
-26.07
-29.84
-33.03
-35.89
-39.69
-44.67
-50.28
-54.76
-55.67
-50.64
-38.93
-22.25
-4.33
10.46
19.08
20.89
17.82
13.07
9.54
8.12
7.45
5.05
-1.1
-11.12
-23.25
-34.54
-42.36
-45.37
-44.02
-40.12
-35.91
-33.24
-33.02
-35.34
-39.74
-45.67
-52.68
-60.56
-69.4
-79.54
-91.39
-105.1
-120.22
-135.41
-148.47
-156.75
-157.98
-151.16
-137.0
-117.79
-96.58
-76.13
-57.94
-42.02
-27.11
-11.47
6.31
26.87
50.03
74.93
100.31
124.68
146.46
164.3
177.42
185.83
190.17
191.34
189.93
185.99
179.13
169.08
156.14
141.35
126.09
111.63
98.64
87.31
77.67
69.95
64.61
61.99
61.92
63.58
65.74
67.23
67.42
66.38
64.56
62.41
60.05
57.28
53.78
49.39
44.28
38.87
33.69
29.24
25.86
23.66
22.52
22.01
21.51
20.38
18.12
14.58
10.02
5.0
0.13
-4.14
-7.7
-10.75
-13.66
-16.81
-20.37
-24.32
-28.46
-32.58
-36.58
-40.51
-44.5
-48.77
-53.55
-59.1
-65.58
-72.97
-80.84
-88.27
-93.94
-96.46
-94.81
-88.64
-78.41
-65.13
-50.12
-34.68
-19.97
-6.97
3.65
11.55
16.82
19.92
21.41
21.81
21.36
20.17
18.36
16.24
14.29
12.93
12.35
12.4
12.78
13.25
13.73
14.25
14.69
14.72
13.85
11.74
8.46
4.56
0.79
-2.3
-4.67
-6.79
-9.33
-12.78
-17.14
-21.99
-26.72
-30.89
-34.44
-37.69
-41.16
-45.25
-50.16
-55.76
-61.64
-67.16
-71.45
-73.63
-72.88
-68.72
-61.19
-50.91
-38.94
-26.59
-15.06
-5.13
2.89
9.17
14.05
17.8
20.38
21.46
20.76
18.32
14.68
10.75
7.35
4.8
2.79
0.76
-1.69
-4.36
-6.69
-8.21
-9.11
-10.24
-12.54
-16.31
-20.7
-24.22
-25.61
-24.93
-23.75
-24.31
-28.3
-35.83
-45.35
-54.59
-61.72
-66.12
-68.08
-68.33
-67.77
-67.98
-71.71
-82.64
-103.8
-135.28
-172.79
-208.27
-232.65
-239.51
-227.55
-200.75
-165.9
-129.37
-94.63
-61.89
-29.54
3.71
37.64
70.47
100.04
124.91
144.76
159.86
170.22
175.05
173.18
164.19
149.43
132.15
116.38
105.26
99.7
98.23
98.11
96.8
93.06
87.06
79.71
71.82
63.7
55.34
46.75
38.28
30.4
23.49
17.52
12.1
6.62
0.49
-6.57
-14.52
-23.06
-31.82
-40.58
-49.47
-58.78
-68.67
-78.8
-88.13
-95.24
-98.87
-98.57
-94.98
-89.68
-84.5
-80.72
-78.62
-77.44
-75.99
-73.39
-69.49
-64.78
-59.76
-54.39
-47.87
-39.04
-27.21
-12.63
3.53
19.69
34.68
48.07
60.08
71.01
80.78
88.94
94.91
98.44
99.61
98.64
95.58
90.31
82.83
73.61
63.68
54.31
46.54
40.76
36.63
33.39
30.25
26.68
22.46
17.61
12.22
6.42
0.48
-5.02
-9.18
-10.88
-9.22
-3.8
4.91
15.71
26.94
37.13
45.32
51.24
55.09
57.21
57.82
57.1
55.21
52.52
49.47
46.39
43.36
40.19
36.69
32.85
28.96
25.51
22.94
21.41
20.79
20.66
20.59
20.17
19.15
17.29
14.4
10.3
4.98
-1.21
-7.49
-12.85
-16.39
-17.67
-16.91
-14.92
-12.72
-11.23
-11.08
-12.56
-15.72
-20.47
-26.52
-33.32
-40.09
-45.87
-49.79
-51.26
-50.1
-46.47
-40.83
-33.62
-25.26
-16.02
-6.23
3.7
13.15
21.45
27.95
32.32
34.5
34.64
32.99
29.83
25.72
21.63
18.86
18.64
21.5
26.9
33.27
38.67
41.71
42.04
40.37
37.96
35.83
34.4
33.38
32.15
30.11
26.96
22.63
17.2
10.88
3.98
-3.06
-9.75
-15.65
-20.56
-24.53
-27.8
-30.77
-33.86
-37.53
-42.22
-48.15
-55.03
-61.97
-67.56
-70.38
-69.51
-64.9
-57.3
-47.88
-37.65
-27.17
-16.55
-5.78
4.89
14.81
23.16
29.28
33.03
34.83
35.44
35.54
35.41
34.88
33.61
31.29
27.82
23.35
18.31
13.31
9.11
6.4
5.81
7.71
12.15
18.8
27.11
36.53
46.66
57.2
67.49
76.6
83.43
86.91
86.46
82.24
75.18
66.79
58.65
51.56
45.9
41.81
38.98
36.51
32.78
25.66
13.4
-4.82
-29.4
-58.93
-90.61
-121.42
-149.43
-174.1
-195.87
-214.71
-229.46
-239.32
-242.37
-236.42
-220.53
-196.38
-168.15
-141.44
-120.8
-108.6
-106.69
-113.95
-126.87
-140.98
-152.8
-160.18
-162.27
-157.99
-135.35
-91.26
-33.61
23.56
69.99
102.38
125.48
142.89
156.89
168.76
174.71
172.81
163.91
151.42
139.49
131.4
128.25
129.63
133.73
136.72
136.12
131.65
124.79
117.13
109.29
100.53
90.11
77.83
63.57
48.67
35.36
25.57
19.87
17.21
15.68
14.07
12.48
11.66
12.92
17.27
24.81
34.65
45.5
56.36
67.17
78.63
91.36
105.51
120.38
134.48
145.93
153.17
155.45
153.18
147.76
141.16
135.41
132.01
131.35
132.43
133.1
130.67
122.86
108.57
88.3
63.86
37.63
11.71
-12.82
-36.17
-59.41
-83.66
-109.09
-134.32
-156.57
-172.63
-180.31
-179.76
-173.64
-166.32
-162.07
-163.23
-169.39
-178.02
-185.99
-191.21
-193.33
-193.37
-192.79
-192.71
-193.8
-196.59
-201.74
-209.79
-220.63
-232.94
-243.98
-250.23
-248.26
-235.91
-212.89
-181.05
-143.97
-105.95
-70.78
-40.49
-14.76
8.69
32.73
59.05
86.99
113.69
135.38
149.33
155.15
154.82
151.41
147.57
144.38
141.47
137.81
132.69
126.19
118.83
111.02
102.53
92.71
80.92
67.07
51.64
35.42
18.98
2.43
-14.36
-31.49
-48.61
-64.87
-79.28
-91.16
-100.46
-107.84
-114.42
-121.1
-128.64
-137.37
-147.23
-157.89
-168.82
-179.38
-188.81
-196.35
-200.82
-201.39
-197.54
-189.24
-177.01
-161.75
-144.3
-125.19
-104.63
-82.26
-58.32
-33.53
-8.85
15.09
38.33
61.53
86.22
110.09
132.67
152.76
170.01
185.54
201.74
220.95
243.96
269.27
293.26
312.19
322.87
323.99
316.12
301.12
281.11
257.91
232.63
205.79
178.07
149.98
122.06
94.79
68.36
42.62
17.39
-7.17
-30.34
-50.63
-66.74
-78.03
-84.99
-89.03
-91.78
-94.19
-96.17
-96.72
-94.47
-88.57
-78.98
-66.34
-51.72
-36.21
-20.86
-6.65
5.48
14.8
20.86
23.81
24.34
23.46
22.14
21.05
20.41
20.13
20.07
20.16
20.5
21.15
22.06
22.94
23.46
23.27
22.2
20.21
17.28
13.42
8.74
3.54
-1.66
-6.31
-10.15
-13.36
-16.54
-20.35
-25.05
-30.33
-35.5
-39.97
-43.59
-46.77
-50.08
-53.79
-57.68
-61.22
-63.9
-65.61
-66.57
-67.01
-66.78
-65.26
-61.6
-55.19
-46.03
-34.79
-22.53
-10.41
0.66
10.05
17.43
22.63
25.75
27.09
27.13
26.43
25.42
24.34
23.23
22.05
20.84
19.77
19.07
18.88
19.19
19.78
20.35
20.67
20.65
20.3
19.67
18.72
17.33
15.37
12.72
9.45
5.66
1.49
-2.99
-7.87
-13.22
-19.08
-25.32
-31.72
-38.04
-44.1
-49.85
-55.14
-59.66
-62.83
-63.92
-62.26
-57.51
-49.84
-39.92
-28.71
-17.26
-6.51
2.88
10.49
16.22
20.26
22.96
24.72
25.81
26.33
26.2
25.39
24.08
22.62
21.53
21.2
21.71
22.85
24.22
25.44
26.27
26.62
26.49
25.94
25.0
23.73
22.18
20.38
18.29
15.78
12.7
8.99
4.75
0.23
-4.31
-8.71
-12.94
-17.04
-21.03
-24.92
-28.82
-33.16
-38.65
-46.01
-55.36
-65.83
-75.61
-82.52
-84.92
-82.29
-75.3
-65.33
-53.8
-41.74
-29.8
-18.51
-8.52
-0.61
4.68
7.26
7.64
6.77
5.79
5.82
7.64
11.6
17.45
24.53
32.04
39.53
47.04
54.88
63.12
71.08
77.25
79.82
77.37
69.62
57.48
42.78
27.46
13.07
0.44
-10.11
-18.65
-25.45
-31.08
-36.35
-42.2
-49.5
-58.57
-68.93
-79.22
-87.54
-92.11
-91.87
-86.78
-77.73
-65.99
-52.69
-38.62
-24.33
-10.37
2.54
13.62
22.36
28.74
33.25
36.58
39.25
41.37
42.74
43.1
42.42
40.99
39.29
37.74
36.6
35.96
35.78
35.94
36.22
36.32
35.96
35.05
33.75
32.48
31.62
31.3
31.18
30.59
28.83
25.55
20.96
15.77
10.91
7.13
4.77
3.69
3.4
3.32
2.96
2.0
0.2
-2.74
-7.09
-13.08
-20.62
-29.11
-37.44
-44.23
-48.2
-48.58
-45.18
-38.44
-29.15
-18.28
-6.83
4.2
13.93
21.66
27.01
29.88
30.49
29.3
26.89
23.89
20.9
18.45
17.07
17.23
19.23
23.13
28.6
34.96
41.33
46.92
51.23
54.1
55.58
55.73
54.42
51.41
46.7
40.75
34.49
28.97
24.82
21.94
19.55
16.7
12.78
7.92
2.78
-1.84
-5.5
-8.39
-11.14
-14.51
-18.96
-24.49
-30.64
-36.74
-42.15
-46.43
-49.39
-50.98
-51.08
-49.36
-45.36
-38.77
-29.79
-19.27
-8.54
1.13
8.97
14.89
19.27
22.45
24.56
25.51
25.43
24.9
24.89
26.26
29.29
33.54
38.15
42.47
46.39
50.3
54.65
59.38
63.72
66.48
66.56
63.48
57.43
49.1
39.2
28.26
16.6
4.42
-7.97
-20.18
-31.78
-42.38
-51.65
-59.29
-64.96
-68.42
-69.7
-69.22
-67.78
-66.33
-65.6
-65.88
-66.91
-67.99
-68.27
-66.93
-63.33
-57.02
-47.82
-35.93
-21.94
-6.99
7.46
19.93
29.25
34.85
36.86
35.87
32.76
28.28
22.95
16.94
10.19
2.59
-5.81
-14.74
-23.67
-32.01
-39.31
-45.3
-49.78
-52.37
-52.43
-49.23
-42.33
-32.03
-19.44
-6.08
6.81
18.77
29.98
40.87
51.38
60.82
68.16
72.56
73.79
72.09
67.92
61.59
53.23
43.14
31.93
20.57
10.0
0.75
-7.25
-14.5
-21.62
-28.93
-36.14
-42.35
-46.08
-45.62
-39.62
-27.77
-11.23
7.41
24.83
38.09
45.46
46.65
42.45
34.07
22.64
9.22
-5.08
-19.02
-31.4
-41.52
-49.34
-55.42
-60.42
-64.71
-68.14
-70.17
-70.14
-67.56
-62.24
-54.29
-44.04
-32.13
-19.39
-6.85
4.54
14.06
21.34
26.33
29.21
30.27
29.91
28.63
26.99
25.43
24.17
23.04
21.52
19.01
15.05
9.54
2.87
-4.27
-10.99
-16.47
-20.14
-21.67
-21.06
-18.52
-14.33
-8.78
-2.19
5.14
12.81
20.31
27.05
32.43
35.94
37.33
36.64
34.23
30.62
26.45
22.35
18.87
16.43
15.22
15.17
15.86
16.78
17.4
17.36
16.52
14.9
12.61
9.74
6.32
2.31
-2.36
-7.72
-13.76
-20.4
-27.42
-34.52
-41.23
-47.07
-51.64
-54.77
-56.61
-57.61
-58.37
-59.47
-61.22
-63.55
-66.01
-67.94
-68.71
-67.91
-65.4
-61.21
-55.49
-48.39
-40.1
-30.97
-21.47
-12.08
-3.22
4.85
11.91
17.75
22.07
24.66
25.51
24.95
23.57
22.01
20.72
19.84
19.29
19.02
19.11
19.69
20.79
22.16
23.29
23.7
23.08
21.47
19.08
16.2
12.98
9.46
5.67
1.67
-2.4
-6.48
-10.61
-15.08
-20.17
-26.03
-32.39
-38.52
-43.4
-45.99
-45.61
-42.11
-35.82
-27.41
-17.66
-7.35
2.78
12.06
19.92
26.0
30.24
32.8
33.95
33.99
33.13
31.68
30.0
28.55
27.63
27.24
26.97
26.24
24.64
22.18
19.38
16.94
15.35
14.59
14.13
13.23
11.32
8.26
4.35
0.14
-3.89
-7.54
-10.91
-14.27
-17.89
-21.94
-26.46
-31.48
-36.99
-42.94
-48.98
-54.43
-58.31
-59.57
-57.4
-51.49
-42.17
-30.21
-16.7
-2.68
10.97
23.64
34.93
44.55
52.26
57.8
61.07
62.28
62.05
61.25
60.77
61.17
62.45
64.11
65.47
66.02
65.66
64.63
63.29
61.87
60.4
58.8
56.98
54.9
52.41
49.19
44.82
38.91
31.45
22.78
13.56
4.46
-4.07
-11.82
-18.79
-25.09
-30.81
-36.09
-40.99
-45.41
-48.95
-50.95
-50.82
-48.27
-43.57
-37.46
-30.67
-23.53
-15.71
-6.48
4.73
17.86
32.03
45.76
57.44
65.79
70.21
70.76
68.02
62.75
55.59
46.85
36.56
24.67
11.23
-3.46
-18.9
-34.5
-49.76
-64.25
-77.51
-88.85
-97.53
-103.01
-105.29
-104.88
-102.33
-97.62
-89.86
-77.8
-60.84
-40.02
-18.2
0.73
13.67
19.96
22.05
24.32
30.53
41.38
53.53
61.27
59.88
48.71
32.39
19.05
16.59
28.82
53.63
83.81
110.09
124.36
121.81
100.97
62.63
9.08
-55.78
-125.71
-191.94
-244.51
-275.13
-280.3
-263.0
-231.84
-197.74
-169.88
-152.58
-144.74
-141.54
-137.38
-128.33
-112.93
-91.8
-66.57
-39.06
-11.03
15.68
39.24
57.96
70.62
76.85
77.1
72.47
64.33
53.93
42.09
29.15
15.09
-0.09
-15.94
-31.37
-44.58
-53.42
-56.06
-51.52
-40.13
-23.44
-3.86
16.02
34.07
49.01
60.49
68.77
74.41
77.87
79.5
79.59
78.53
76.94
75.49
74.81
75.19
76.57
78.57
80.65
82.33
83.29
83.35
82.49
80.79
78.37
75.46
72.32
69.18
66.13
63.11
59.84
55.96
51.17
45.4
38.88
32.12
25.65
19.92
15.01
10.64
6.3
1.44
-4.29
-10.91
-18.05
-25.02
-30.89
-34.66
-35.42
-32.6
-26.15
-16.61
-4.97
7.56
19.88
31.14
40.83
48.71
54.76
59.04
61.66
62.79
62.61
61.23
58.7
55.04
50.33
44.9
39.23
33.95
29.74
27.2
26.64
27.94
30.54
33.59
36.51
38.69
39.68
39.25
37.35
34.03
29.37
23.53
16.81
10.25
4.58
0.15
-2.94
-4.75
-5.42
-5.35
-5.03
-4.83
-4.0
-1.97
1.68
7.33
15.18
25.09
36.34
47.75
58.02
66.88
73.23
75.15
70.8
59.37
41.96
21.43
1.63
-19.93
-41.01
-58.39
-71.03
-80.96
-90.79
-100.9
-109.77
-115.35
-117.26
-115.18
-110.35
-105.14
-101.87
-102.15
-106.15
-113.42
-123.63
-136.99
-152.57
-168.72
-182.49
-189.71
-186.07
-167.72
-133.9
-86.78
-31.42
26.86
83.57
136.09
183.9
220.84
241.97
246.66
240.18
228.35
214.16
197.59
178.18
156.88
135.87
120.69
109.77
101.0
92.51
84.09
77.39
74.54
76.21
80.27
81.89
74.25
54.38
23.47
-13.36
-49.16
-77.59
-94.65
-99.29
-94.61
-86.33
-80.16
-81.05
-91.69
-111.52
-136.08
-158.14
-170.5
-171.36
-164.39
-156.27
-154.17
-163.2
-185.97
-222.65
-271.36
-312.64
-327.53
-305.11
-248.42
-170.7
-87.97
-15.17
36.64
63.07
67.13
55.76
37.7
20.43
5.97
-4.87
-12.66
-18.3
-22.17
-24.82
-28.45
-35.28
-46.07
-59.13
-70.41
-74.57
-66.86
-41.6
1.29
56.95
118.46
179.78
237.94
286.97
321.71
339.91
342.54
330.77
304.36
263.06
209.09
148.11
88.06
36.91
-0.38
-23.23
-35.17
-41.03
-44.33
-46.09
-46.03
-42.74
-35.21
-23.68
-9.59
4.82
17.85
28.91
38.49
47.27
55.45
62.75
68.42
71.5
71.07
66.82
59.11
48.46
35.98
23.01
10.93
0.94
-6.32
-11.01
-13.86
-15.88
-17.85
-20.08
-22.27
-23.67
-23.39
-20.96
-16.8
-12.37
-9.79
-11.06
-17.21
-27.74
-40.95
-54.77
-67.94
-80.72
-94.6
-111.1
-130.3
-150.22
-167.25
-177.62
-178.93
-170.93
-155.28
-134.68
-111.93
-89.4
-69.05
-52.53
-41.03
-34.93
-33.6
-35.55
-38.91
-42.14
-44.2
-44.56
-42.92
-39.05
-32.98
-25.02
-15.83
-6.09
3.92
14.52
26.48
40.62
57.24
75.86
95.03
112.59
125.93
132.49
130.48
119.36
100.22
75.64
49.02
23.74
2.25
-14.38
-26.44
-35.05
-41.57
-47.01
-51.86
-56.13
-59.7
-62.41
-64.25
-65.35
-65.89
-65.98
-65.59
-64.48
-62.18
-58.17
-52.02
-43.74
-33.87
-23.45
-13.67
-5.49
0.61
4.63
6.84
7.57
7.17
6.08
5.01
4.89
6.68
10.93
17.4
25.0
31.93
36.43
37.43
35.02
30.35
25.01
20.3
16.72
13.95
11.43
8.86
6.4
4.46
3.18
2.35
1.57
0.67
-0.02
0.23
1.87
4.74
8.04
10.92
13.08
15.07
17.91
22.4
28.63
35.8
42.62
47.96
51.31
52.84
53.1
52.59
51.58
50.21
48.76
47.83
48.28
50.9
56.02
63.15
70.95
77.6
81.52
82.0
79.52
75.47
71.51
69.05
68.53
69.29
70.26
70.81
71.26
72.29
74.07
75.62
74.91
69.59
57.69
38.96
15.26
-10.04
-33.55
-52.85
-67.0
-76.04
-80.72
-82.9
-84.42
-86.71
-90.29
-95.36
-101.73
-108.75
-114.99
-118.51
-118.16
-112.87
-101.75
-84.04
-60.14
-32.15
-5.64
13.4
26.75
37.16
47.17
55.65
62.23
66.14
66.7
63.74
58.39
52.72
47.81
43.92
40.5
37.04
33.2
29.62
27.31
27.5
30.77
35.79
40.25
41.92
39.8
34.02
26.15
17.89
11.09
7.53
8.01
12.13
17.58
20.85
17.78
6.39
-12.76
-36.61
-60.59
-80.56
-93.69
-98.85
-96.22
-89.67
-79.6
-67.02
-54.04
-42.92
-35.52
-32.37
-32.66
-34.55
-36.25
-36.57
-34.43
-31.07
-28.12
-26.21
-24.3
-20.17
-11.58
2.26
20.32
39.33
54.9
63.35
62.18
49.99
26.17
-9.12
-54.39
-106.0
-158.83
-207.19
-246.06
-272.37
-285.46
-286.54
-277.47
-259.72
-233.91
-200.34
-159.71
-113.44
-63.88
-13.99
33.05
74.54
108.76
135.3
154.77
168.32
177.2
182.41
184.91
185.91
186.88
188.75
190.76
190.01
182.17
163.61
133.66
95.56
55.39
19.49
-8.2
-27.29
-40.06
-49.42
-57.07
-63.05
-66.71
-67.9
-67.56
-66.93
-66.27
-63.99
-57.13
-42.96
-20.47
8.84
41.49
73.38
101.23
123.33
139.42
150.13
156.32
158.48
156.41
149.01
134.51
110.94
77.24
34.07
-15.91
-68.58
-119.69
-166.01
-205.78
-238.43
-263.95
-282.44
-294.02
-299.27
-299.49
-296.61
-292.47
-287.99
-282.57
-274.19
-260.25
-238.67
-208.82
-171.81
-129.99
-85.83
-40.79
5.17
52.98
102.99
153.46
200.14
237.15
259.1
263.34
251.28
227.96
200.46
175.41
156.97
146.17
141.57
140.72
141.6
143.18
145.22
147.46
149.09
148.79
145.37
138.43
128.72
117.8
107.16
97.6
88.96
80.55
71.83
62.96
54.81
48.46
44.64
43.3
43.76
45.08
46.55
47.93
49.45
51.6
54.97
60.15
67.61
77.44
88.92
100.2
108.41
110.41
103.94
88.67
66.57
41.19
16.47
-4.64
-20.83
-32.3
-39.93
-44.54
-46.41
-45.46
-41.67
-35.39
-27.37
-18.44
-9.25
-0.22
8.26
15.63
21.04
23.55
22.52
17.94
10.46
1.31
-8.2
-17.01
-24.59
-30.9
-36.32
-41.36
-46.51
-52.07
-58.11
-64.48
-70.76
-76.4
-80.87
-83.87
-85.6
-86.7
-88.11
-90.55
-94.16
-98.32
-101.94
-103.9
-103.61
-101.15
-97.1
-92.18
-86.98
-81.92
-77.41
-74.03
-72.34
-72.55
-74.22
-76.3
-77.69
-77.95
-77.97
-79.7
-85.37
-96.07
-110.76
-126.14
-137.46
-140.04
-130.65
-108.4
-74.68
-32.57
13.94
60.62
103.42
138.84
164.26
178.37
181.4
174.97
161.51
143.58
123.24
101.84
80.16
58.58
37.49
17.33
-1.43
-18.4
-33.25
-45.73
-55.57
-62.48
-66.36
-67.37
-66.11
-63.44
-60.29
-57.34
-54.81
-52.64
-50.57
-48.46
-46.3
-44.02
-41.34
-37.52
-31.51
-22.32
-9.46
6.68
24.69
42.48
57.8
68.94
75.19
76.9
75.2
71.43
66.76
61.95
57.52
53.85
51.23
49.68
48.65
47.09
43.69
37.49
28.29
16.89
4.72
-6.67
-16.15
-23.29
-28.3
-31.69
-33.89
-34.98
-34.68
-32.54
-28.17
-21.57
-13.22
-4.03
4.95
12.78
18.82
22.88
25.08
25.81
25.59
25.05
24.83
25.45
27.16
29.92
33.36
37.08
40.79
44.45
48.19
52.05
55.79
58.81
60.38
59.96
57.5
53.46
48.67
43.89
39.55
35.6
31.57
26.86
20.93
13.59
5.05
-4.12
-13.09
-21.01
-27.17
-31.17
-32.88
-32.41
-29.92
-25.62
-19.81
-12.9
-5.51
1.62
7.82
12.6
15.85
17.73
18.54
18.6
18.1
17.16
15.84
14.21
12.36
10.42
8.55
6.94
5.84
5.48
5.98
7.26
8.93
10.46
11.27
11.07
9.88
8.04
6.01
4.17
2.65
1.37
0.13
-1.24
-2.81
-4.54
-6.35
-8.18
-10.0
-11.84
-13.7
-15.63
-17.71
-20.04
-22.69
-25.54
-28.23
-30.23
-30.94
-29.96
-27.15
-22.67
-16.91
-10.31
-3.33
3.61
10.1
15.71
20.11
23.11
24.74
25.23
24.9
24.07
22.99
21.83
20.72
19.77
19.09
18.69
18.5
18.37
18.11
17.6
16.79
15.69
14.31
12.65
10.67
8.33
5.61
2.55
-0.78
-4.3
-7.93
-11.58
-15.16
-18.54
-21.53
-23.92
-25.5
-26.17
-25.99
-25.25
-24.4
-23.9
-24.06
-24.93
-26.39
-28.21
-30.28
-32.54
-34.91
-37.15
-38.75
-39.13
-37.78
-34.59
-29.82
-24.0
-17.72
-11.44
-5.44
0.0
4.59
7.96
9.86
10.36
9.88
9.1
8.6
8.6
8.9
9.11
9.04
8.89
9.22
10.6
13.26
16.9
20.86
24.43
27.21
29.21
30.66
31.73
32.38
32.45
31.8
30.55
29.06
27.77
27.0
26.73
26.65
26.35
25.5
24.04
22.2
20.29
18.49
16.7
14.48
11.21
6.42
0.01
-7.67
-15.84
-23.68
-30.51
-35.98
-40.05
-42.83
-44.46
-45.02
-44.53
-42.99
-40.45
-36.93
-32.42
-26.84
-20.05
-11.96
-2.61
7.7
18.44
28.93
38.46
46.51
52.85
57.6
61.09
63.7
65.71
67.22
68.25
68.84
69.17
69.43
69.76
70.11
70.07
68.97
65.91
59.97
50.44
37.0
19.95
0.32
-20.24
-39.81
-56.64
-69.61
-78.46
-83.66
-86.09
-86.75
-86.41
-85.65
-84.9
-84.42
-84.31
-84.38
-84.16
-83.1
-80.84
-77.39
-73.03
-68.11
-62.69
-56.45
-48.89
-39.7
-29.08
-17.69
-6.5
3.7
12.51
19.78
25.44
29.19
30.58
29.2
25.09
18.82
11.39
3.8
-3.27
-9.66
-15.42
-20.48
-24.33
-26.1
-24.96
-20.62
-13.65
-5.36
2.58
8.9
13.06
15.38
16.69
17.8
19.09
20.44
21.37
21.5
20.78
19.58
18.32
17.18
15.92
14.0
10.97
6.83
2.1
-2.47
-6.31
-9.33
-11.92
-14.52
-17.18
-19.4
-20.32
-19.27
-16.19
-11.75
-6.99
-2.75
0.76
3.98
7.78
12.94
19.91
28.7
39.01
50.25
61.62
72.07
80.4
85.59
87.15
85.36
81.23
76.13
71.3
67.41
64.56
62.36
60.3
58.02
55.5
52.98
50.85
49.45
48.96
49.29
50.16
51.24
52.32
53.4
54.61
55.98
57.29
58.06
57.61
55.35
50.98
44.46
35.92
25.41
12.86
-1.91
-18.89
-37.61
-57.16
-76.29
-93.81
-108.96
-121.49
-131.54
-139.33
-144.91
-148.14
-148.85
-147.07
-143.17
-137.69
-131.05
-123.42
-114.69
-104.74
-93.74
-82.2
-70.78
-60.01
-50.01
-40.63
-31.63
-22.96
-14.85
-7.69
-1.79
2.74
6.01
8.19
9.47
10.13
10.49
10.92
11.69
12.75
13.76
14.24
13.86
12.71
11.25
10.05
9.53
9.75
10.48
11.45
12.52
13.74
15.24
17.09
19.21
21.43
23.58
25.57
27.39
29.04
30.45
31.61
32.6
33.65
35.08
37.07
39.48
41.83
43.34
43.26
41.15
37.08
31.56
25.35
19.13
13.37
8.23
3.66
-0.44
-4.14
-7.45
-10.36
-12.89
-15.17
-17.38
-19.66
-22.0
-24.21
-25.98
-27.05
-27.37
-27.08
-26.45
-25.58
-24.3
-22.18
-18.86
-14.28
-8.87
-3.38
1.56
5.76
9.75
14.48
20.88
29.39
39.68
50.79
61.34
69.95
75.41
76.87
73.82
66.22
54.58
40.06
24.33
9.13
-4.3
-15.54
-24.86
-33.1
-41.08
-49.07
-56.54
-62.39
-65.54
-65.32
-61.66
-54.6
-44.37
-31.35
-16.02
1.08
19.35
38.15
56.75
74.44
90.99
105.97
118.62
127.87
132.77
132.85
128.15
119.08
106.49
92.25
78.26
66.1
56.4
48.97
43.09
37.65
31.42
19.69
1.03
-22.49
-46.29
-66.17
-79.65
-85.64
-84.13
-76.27
-64.38
-50.77
-38.4
-28.0
-19.54
-12.42
-5.72
1.13
8.12
14.85
21.44
28.1
34.9
42.16
49.37
55.8
60.65
63.17
62.8
59.43
52.95
43.34
30.54
14.88
-2.44
-19.54
-34.14
-44.3
-48.8
-47.88
-43.25
-37.65
-33.89
-33.69
-37.34
-43.87
-51.81
-59.81
-67.12
-73.53
-78.98
-83.22
-85.57
-85.34
-82.31
-77.04
-70.82
-65.17
-61.3
-59.79
-60.51
-62.88
-66.22
-70.02
-73.92
-77.63
-80.82
-83.08
-84.07
-83.61
-81.73
-78.64
-74.68
-70.26
-65.84
-61.87
-58.69
-56.48
-55.17
-54.5
-54.16
-53.92
-53.7
-53.5
-53.19
-52.45
-50.73
-47.39
-42.05
-34.64
-25.6
-15.64
-5.55
4.04
12.77
20.48
27.08
32.45
36.42
38.86
39.82
39.54
38.45
37.0
35.56
34.34
33.48
33.02
33.0
33.38
34.1
35.0
35.94
36.77
37.42
37.76
37.57
36.53
34.25
30.44
25.06
18.37
10.86
3.09
-4.44
-11.34
-17.36
-22.31
-26.07
-28.7
-30.43
-31.67
-32.89
-34.41
-36.32
-38.4
-40.36
-41.97
-43.3
-44.74
-46.81
-49.86
-53.85
-58.23
-62.12
-64.69
-65.4
-64.11
-61.04
-56.52
-50.8
-44.02
-36.27
-27.74
-18.75
-9.8
-1.4
6.11
12.68
18.67
24.73
31.61
39.87
49.74
61.02
73.15
85.34
96.75
106.55
114.01
118.61
120.2
119.09
116.1
112.42
109.25
107.5
107.49
108.95
111.2
113.44
114.97
115.35
114.46
112.37
109.23
105.19
100.37
94.86
88.71
81.88
74.29
65.84
56.64
47.02
37.51
28.61
20.52
13.03
5.67
-1.93
-9.76
-17.37
-24.02
-29.06
-32.33
-34.05
-34.62
-34.39
-33.54
-32.21
-30.48
-28.51
-26.45
-24.54
-22.83
-21.25
-19.62
-17.81
-15.79
-13.59
-11.28
-8.93
-6.8
-5.08
-3.67
-2.27
-0.43
2.15
5.58
9.67
13.93
17.17
18.63
18.46
17.62
17.28
18.08
19.84
21.77
22.71
20.45
13.81
3.23
-9.52
-22.52
-34.66
-45.6
-55.47
-64.64
-75.33
-88.83
-104.55
-120.37
-134.05
-144.49
-151.7
-156.4
-159.82
-165.76
-176.72
-192.29
-209.44
-224.16
-233.42
-235.47
-229.66
-201.36
-146.69
-75.4
-5.68
48.01
80.57
93.28
90.16
75.91
55.1
29.66
1.93
-25.01
-50.29
-72.12
-90.19
-104.56
-114.44
-118.54
-118.0
-115.02
-112.16
-111.32
-112.84
-115.62
-117.02
-113.14
-102.4
-87.26
-72.05
-60.49
-53.65
-49.53
-44.98
-37.36
-25.93
-12.18
0.81
10.74
17.5
22.9
29.42
38.26
49.03
60.32
70.46
78.24
83.38
86.35
87.88
88.81
89.78
91.48
94.63
99.65
106.58
114.93
123.9
132.7
140.92
148.54
155.84
163.14
170.51
177.63
183.74
187.89
189.36
188.14
185.15
181.9
179.78
179.06
178.48
175.61
167.92
154.19
135.33
114.25
94.75
80.03
71.54
68.67
69.31
70.76
70.84
68.35
63.21
56.07
47.9
39.52
31.39
23.64
16.24
9.12
2.23
-4.5
-11.19
-17.94
-24.64
-30.8
-35.62
-38.36
-38.77
-37.27
-34.87
-32.77
-31.94
-32.98
-36.0
-40.78
-46.62
-52.41
-56.56
-57.37
-53.55
-44.83
-32.13
-17.32
-2.54
10.4
20.5
27.64
32.38
35.5
37.69
39.35
40.59
41.44
41.81
41.55
40.58
38.86
36.33
32.98
29.03
24.91
21.35
18.84
17.28
16.42
16.1
16.1
16.25
16.27
15.65
14.1
11.36
7.07
1.59
-4.29
-9.81
-14.6
-18.64
-22.17
-25.09
-27.29
-29.04
-30.09
-29.86
-28.06
-25.13
-22.49
-24.45
-34.01
-49.62
-71.03
-98.15
-129.3
-162.17
-194.21
-222.99
-246.14
-261.3
-266.93
-263.23
-251.36
-233.16
-210.87
-186.44
-161.16
-135.75
-110.48
-85.8
-62.81
-42.18
-23.88
-7.49
7.54
21.38
33.7
43.99
51.79
56.89
59.77
61.23
61.79
61.46
60.03
57.48
54.35
51.5
49.54
48.55
47.95
46.75
44.15
40.02
34.95
29.98
26.03
23.51
22.31
22.02
22.09
22.04
21.5
20.28
18.4
16.26
14.64
14.53
16.9
22.29
30.7
41.63
54.27
67.7
81.09
93.71
104.97
114.24
120.72
123.18
119.87
108.75
88.38
58.96
23.14
-14.15
-47.11
-71.25
-85.13
-90.88
-92.93
-95.79
-102.09
-111.95
-123.92
-136.56
-149.43
-162.8
-176.61
-189.53
-199.12
-203.05
-200.61
-193.3
-183.99
-175.34
-168.44
-162.53
-155.96
-147.38
-136.46
-123.65
-109.48
-94.16
-77.69
-60.38
-43.13
-27.05
-12.8
-0.25
11.31
22.31
32.27
39.88
43.86
44.0
41.64
39.37
39.96
45.47
56.53
72.39
91.36
111.32
130.17
146.06
157.57
164.05
165.86
164.22
160.79
157.12
154.19
152.31
151.18
150.35
149.59
149.39
150.44
153.13
157.1
161.28
164.23
164.68
161.85
155.82
147.96
139.79
132.23
125.54
119.73
114.83
110.76
106.93
102.57
98.38
95.06
93.02
92.31
93.09
95.76
100.54
106.82
113.81
122.83
134.46
147.65
159.83
168.29
171.62
169.75
163.29
153.95
146.73
145.32
150.66
160.86
172.92
185.03
196.48
206.9
195.59
151.78
78.92
-6.1
-85.15
-148.58
-194.37
-221.81
-237.12
-243.85
-240.7
-227.24
-205.78
-181.37
-159.83
-144.62
-137.25
-137.41
-142.36
-146.66
-146.55
-141.34
-133.09
-127.93
-127.71
-132.1
-139.57
-147.32
-151.51
-150.18
-144.52
-134.07
-122.29
-112.52
-107.22
-107.21
-111.12
-115.97
-119.2
-119.59
-117.27
-113.58
-108.89
-103.11
-96.04
-87.82
-79.21
-71.61
-66.38
-64.0
-64.33
-65.79
-66.76
-66.45
-65.25
-64.7
-66.66
-72.26
-81.07
-91.46
-100.72
-106.41
-107.12
-102.58
-93.21
-79.51
-61.99
-41.43
-19.55
1.34
19.05
32.54
42.62
51.5
61.63
74.25
88.79
103.24
115.32
123.57
127.65
127.91
124.71
118.08
107.93
94.61
79.3
63.93
50.67
41.13
35.87
34.22
34.68
35.56
35.62
34.36
32.03
29.16
26.2
23.22
19.94
16.06
11.55
6.7
2.02
-2.1
-5.57
-8.65
-11.8
-15.41
-19.66
-24.38
-29.08
-33.02
-35.35
-35.39
-32.86
-28.16
-22.37
-17.0
-13.39
-12.14
-12.86
-14.41
-15.53
-15.65
-15.26
-15.77
-18.94
-26.08
-37.46
-52.14
-68.21
-83.33
-95.2
-101.98
-102.58
-96.79
-85.38
-70.05
-53.06
-36.78
-23.0
-12.54
-5.23
-0.32
2.9
4.75
5.12
3.83
1.14
-2.1
-4.68
-5.64
-4.68
-2.42
-0.13
0.8
-0.55
-4.24
-9.5
-14.97
-19.17
-21.08
-20.4
-17.61
-13.75
-9.93
-7.16
-6.25
-7.86
-12.31
-18.92
-25.43
-28.06
-22.66
-6.69
19.08
50.15
79.7
101.18
110.79
108.53
97.45
81.74
64.83
48.53
33.36
19.41
7.01
-3.2
-10.76
-15.78
-18.88
-20.81
-21.96
-22.16
-20.84
-17.43
-11.8
-4.44
3.67
11.35
17.5
21.41
22.85
22.14
20.1
17.84
16.32
15.98
16.45
16.68
15.61
12.83
8.99
5.58
4.08
5.08
7.9
10.97
12.77
12.67
11.25
9.81
9.55
10.86
13.18
15.5
17.01
17.6
17.7
17.88
18.21
18.15
16.69
12.98
6.82
-1.16
-9.81
-17.93
-24.82
-30.44
-35.07
-38.83
-41.34
-41.71
-39.01
-32.9
-23.87
-13.15
-2.19
7.87
16.53
23.78
29.94
35.23
39.74
43.43
46.32
48.56
50.43
52.31
54.51
57.14
60.1
63.06
65.65
67.6
68.82
69.32
69.08
67.92
65.55
61.78
56.76
51.02
45.29
40.17
35.85
32.13
28.64
25.11
21.6
18.34
15.53
13.1
10.79
8.28
5.45
2.43
-0.39
-2.56
-3.74
-3.73
-2.59
-0.59
1.76
3.79
4.73
3.93
1.0
-4.01
-10.48
-17.3
-23.01
-26.2
-25.93
-22.06
-15.34
-7.22
0.67
6.99
10.95
12.31
11.15
7.74
2.43
-4.17
-11.12
-17.23
-21.37
-22.77
-21.29
-17.44
-12.2
-6.72
-2.08
0.94
1.91
0.8
-2.03
-5.97
-10.21
-13.94
-16.45
-17.35
-16.55
-14.33
-11.22
-7.89
-4.94
-2.78
-1.55
-1.12
-1.22
-1.53
-1.72
-1.53
-0.76
0.68
2.7
5.02
7.23
8.83
9.38
8.57
6.32
2.75
-1.78
-6.77
-11.65
-15.82
-18.75
-20.02
-19.36
-16.71
-12.27
-6.55
-0.28
5.73
10.8
14.54
16.93
18.2
18.66
18.6
18.19
17.51
16.66
15.8
15.08
14.63
14.46
14.45
14.37
13.99
13.13
11.73
9.94
8.02
6.26
4.87
3.87
3.05
2.16
1.0
-0.44
-1.92
-3.15
-3.93
-4.3
-4.51
-4.9
-5.67
-6.84
-8.22
-9.56
-10.64
-11.33
-11.61
-11.47
-10.96
-10.17
-9.24
-8.33
-7.54
-6.94
-6.5
-6.18
-5.99
-6.04
-6.5
-7.52
-9.2
-11.42
-13.86
-16.01
-17.32
-17.32
-15.79
-12.84
-8.77
-4.0
1.07
6.13
10.86
14.94
17.94
19.52
19.49
18.02
15.62
13.08
11.19
10.53
11.19
12.84
14.8
16.32
16.92
16.51
15.38
14.04
12.89
12.08
11.44
10.62
9.35
7.5
5.18
2.62
0.09
-2.15
-3.81
-4.56
-4.12
-2.42
0.18
2.91
4.79
5.05
3.4
0.22
-3.77
-7.82
-11.52
-14.89
-18.22
-21.75
-25.43
-28.77
-31.04
-31.52
-29.79
-25.85
-20.05
-12.94
-5.13
2.79
10.11
16.01
19.56
20.04
17.33
12.13
5.85
0.18
-3.55
-4.94
-4.59
-3.84
-4.18
-6.68
-11.62
-18.42
-25.86
-32.49
-37.09
-39.04
-38.42
-35.79
-31.91
-27.48
-23.01
-18.94
-15.79
-14.03
-13.76
-14.47
-14.99
-13.91
-10.21
-3.77
4.57
13.44
21.64
28.53
34.06
38.46
41.79
43.82
44.24
42.99
40.46
37.3
34.07
30.93
27.61
23.77
19.42
15.06
11.52
9.39
8.58
8.24
7.11
4.2
-0.63
-6.61
-12.39
-16.76
-19.2
-19.96
-19.75
-19.17
-18.45
-17.4
-15.78
-13.67
-11.67
-10.76
-11.94
-15.88
-22.58
-31.4
-41.19
-50.53
-57.94
-62.03
-61.77
-56.79
-47.61
-35.73
-23.36
-12.69
-5.01
0.01
4.29
10.57
21.05
36.07
53.62
70.04
81.5
85.76
82.93
75.09
64.9
54.27
43.96
34.03
24.75
17.07
12.19
10.52
10.96
11.04
7.96
0.08
-12.28
-27.14
-41.97
-55.15
-66.59
-77.36
-88.44
-99.53
-108.58
-112.42
-108.3
-95.22
-74.42
-48.73
-21.26
5.86
31.69
55.84
77.58
95.49
108.02
114.58
116.35
115.9
116.15
119.0
124.7
132.32
140.68
149.06
157.09
164.31
169.85
172.78
172.85
171.04
169.34
169.73
173.0
178.0
182.05
182.08
175.98
163.2
144.68
122.18
97.52
72.41
48.47
27.37
10.68
-0.58
-6.42
-7.92
-6.93
-5.42
-4.79
-5.56
-7.54
-10.39
-14.02
-18.87
-25.71
-35.19
-47.51
-62.2
-78.25
-94.51
-110.0
-124.2
-136.96
-148.27
-158.0
-165.63
-170.35
-171.58
-169.62
-166.18
-164.26
-167.23
-177.26
-193.95
-214.01
-232.18
-243.31
-244.41
-235.67
-220.06
-201.7
-184.07
-168.97
-156.57
-146.15
-136.93
-128.31
-119.52
-109.22
-95.64
-77.19
-53.49
-25.82
3.08
30.04
52.72
70.26
83.2
92.73
99.77
104.5
106.43
104.94
99.72
90.96
79.01
64.17
46.53
25.9
2.53
-22.45
-46.73
-67.78
-83.18
-91.32
-91.84
-85.9
-76.15
-65.57
-56.15
-47.9
-39.64
-29.76
-17.57
-3.86
9.4
19.77
26.43
30.94
36.85
46.23
58.74
71.67
81.76
86.89
85.52
78.58
68.94
61.44
57.67
57.12
58.19
59.82
61.52
59.64
51.74
38.23
25.32
15.44
8.81
3.56
-1.79
-8.28
-21.72
-45.36
-77.9
-109.34
-136.66
-160.78
-185.3
-212.2
-242.12
-281.68
-334.76
-399.51
-462.5
-518.24
-565.29
-605.33
-638.75
-621.8
-533.29
-385.47
-257.7
-165.78
-106.48
-59.77
-19.15
18.0
51.67
73.77
79.1
69.75
60.98
60.6
71.13
89.82
113.49
138.96
158.62
168.52
170.51
175.65
187.99
206.88
228.15
248.53
265.97
276.18
277.38
270.72
262.5
254.85
248.1
241.65
236.13
232.32
228.79
225.17
221.75
220.58
221.01
221.35
219.74
215.63
209.37
201.36
194.3
190.6
191.28
194.1
195.27
191.59
181.85
166.9
149.11
134.09
126.68
128.9
139.52
155.76
174.89
194.6
212.33
209.6
174.91
110.2
31.7
-40.91
-94.92
-127.1
-140.9
-142.85
-139.2
-131.47
-119.45
-103.86
-87.45
-73.57
-64.94
-62.3
-64.5
-69.31
-72.37
-70.67
-64.7
-57.28
-51.36
-48.42
-48.45
-50.97
-55.8
-59.99
-62.18
-63.86
-67.21
-73.39
-81.89
-91.54
-101.51
-111.46
-120.64
-128.64
-137.39
-148.73
-163.29
-180.22
-198.2
-215.9
-231.69
-243.29
-236.21
-203.95
-152.03
-95.1
-46.6
-12.59
7.92
19.65
27.71
35.42
41.78
44.69
42.71
37.55
31.72
27.45
26.19
28.36
33.27
38.04
40.08
38.56
34.76
30.87
27.99
26.7
26.76
27.64
27.92
26.88
25.22
24.97
27.92
34.71
44.51
54.9
63.42
67.81
66.94
61.44
53.64
46.4
41.86
40.51
39.9
36.58
26.95
8.31
-19.21
-51.89
-83.04
-105.09
-112.21
-103.5
-81.02
-49.25
-14.76
16.19
39.08
52.59
58.22
59.19
57.93
58.56
66.07
83.53
106.12
125.91
136.33
135.55
135.74
138.74
143.49
150.05
153.01
150.88
143.88
134.61
125.81
118.61
110.31
92.58
63.01
24.15
-13.16
-46.17
-74.26
-98.04
-117.54
-134.32
-148.61
-158.92
-164.32
-164.33
-159.92
-151.33
-138.67
-122.42
-104.6
-86.94
-70.27
-55.72
-44.04
-36.09
-31.11
-27.63
-24.39
-21.31
-18.66
-16.4
-14.75
-13.71
-13.62
-14.36
-16.29
-20.75
-30.46
-48.35
-75.96
-112.29
-152.68
-189.54
-213.59
-216.99
-196.09
-152.93
-94.66
-31.11
27.88
74.85
105.8
120.3
120.65
110.94
96.17
81.54
71.42
68.3
72.01
79.59
86.31
87.32
79.79
64.44
45.74
30.22
23.79
28.98
43.83
62.75
79.12
88.25
89.17
84.11
76.71
69.71
63.86
58.43
52.47
46.04
40.28
36.33
34.1
31.97
27.49
19.04
7.01
-6.08
-16.72
-22.18
-21.82
-17.34
-11.72
-7.66
-6.48
-7.8
-10.51
-13.9
-18.18
-24.13
-31.85
-39.7
-44.23
-41.46
-28.36
-4.9
26.05
59.96
91.98
118.52
137.76
149.7
155.24
156.06
153.27
147.9
141.33
134.61
128.4
122.65
116.77
109.88
101.74
92.02
81.15
70.37
59.82
48.3
33.31
12.33
-15.91
-50.03
-87.73
-126.37
-164.37
-198.43
-225.33
-244.79
-259.86
-283.92
-317.03
-352.11
-380.45
-386.55
-363.39
-311.45
-237.35
-150.7
-55.66
36.27
110.27
156.29
173.69
167.86
146.93
118.04
86.56
56.33
30.61
12.4
4.52
8.4
21.19
38.91
56.75
70.83
79.1
81.1
77.51
69.8
60.19
50.4
42.45
37.93
37.58
40.69
45.74
50.48
53.09
53.03
50.69
47.39
44.24
41.78
39.65
36.6
31.32
23.29
13.53
4.18
-2.04
-3.38
0.12
6.55
12.9
16.65
17.06
15.68
15.36
18.4
24.65
31.53
35.35
33.17
24.41
11.04
-3.14
-14.08
-19.11
-18.57
-14.22
-7.97
-1.99
0.62
-4.95
-22.62
-52.45
-88.32
-120.22
-135.45
-123.11
-79.71
-12.17
62.62
125.91
163.94
171.39
147.08
94.86
23.18
-57.05
-134.39
-200.62
-248.63
-273.75
-275.91
-265.05
-254.65
-254.91
-269.32
-294.08
-322.89
-345.22
-348.55
-300.99
-191.46
-40.21
111.55
223.9
293.61
325.7
329.01
309.12
274.89
232.22
185.88
141.05
101.08
67.29
35.51
1.69
-33.16
-63.12
-83.48
-97.88
-105.72
-106.91
-103.0
-100.26
-103.97
-110.11
-112.8
-107.22
-90.25
-59.93
-16.73
36.33
90.76
136.4
165.09
171.23
151.8
108.22
48.12
-17.32
-67.12
-83.35
-62.54
-16.01
37.72
83.28
115.9
137.19
153.12
171.79
198.52
229.86
261.69
288.12
302.08
297.82
272.36
226.53
164.56
91.64
13.63
-61.25
-124.54
-170.52
-196.91
-205.78
-202.56
-195.07
-192.47
-202.68
-228.55
-257.83
-274.74
-264.82
-222.72
-153.03
-67.31
19.18
91.54
141.92
170.5
179.02
171.08
150.46
120.51
83.76
42.04
-2.85
-45.18
-78.49
-98.65
-103.42
-92.63
-66.8
-26.57
27.32
92.42
163.9
233.52
290.3
324.44
329.75
306.05
258.99
198.07
132.5
68.81
9.26
-47.24
-101.98
-154.74
-202.39
-240.16
-263.33
-270.91
-265.33
-251.36
-232.99
-211.64
-186.83
-157.27
-122.93
-85.59
-50.11
-21.77
-4.41
1.36
2.23
2.79
3.84
-3.28
-21.33
-50.18
-83.27
-113.24
-132.95
-138.64
-132.62
-121.72
-113.87
-113.37
-120.34
-130.46
-137.87
-137.74
-128.54
-112.66
-93.98
-75.69
-58.42
-41.98
-25.87
-9.89
6.52
24.19
43.34
63.29
81.98
96.92
105.66
107.59
104.3
99.17
95.41
94.3
94.84
94.61
91.64
85.31
76.73
67.82
60.08
53.55
46.98
38.95
29.13
19.07
11.57
9.59
14.62
25.65
39.26
50.99
57.19
56.57
50.57
42.48
35.69
32.14
31.55
31.94
30.94
27.08
20.43
12.33
4.5
-1.97
-7.03
-11.41
-15.73
-19.79
-22.44
-22.05
-17.35
-8.32
3.79
16.8
28.52
37.52
43.53
47.2
49.61
51.72
53.95
56.2
57.95
58.63
57.91
55.83
52.83
49.59
46.76
44.73
43.52
42.82
42.17
41.23
39.88
38.15
36.09
33.58
30.32
26.04
20.71
14.64
8.48
2.86
-1.85
-5.69
-9.05
-12.43
-16.2
-20.57
-25.68
-31.64
-38.48
-45.96
-53.34
-59.42
-62.86
-62.66
-58.51
-50.92
-40.93
-29.73
-18.29
-7.27
2.94
12.15
20.17
26.86
32.16
36.13
38.92
40.8
42.05
42.89
43.45
43.66
43.39
42.48
40.92
38.86
36.58
34.43
32.68
31.48
30.8
30.44
30.01
29.04
27.1
23.98
19.87
15.23
10.59
6.34
2.54
-1.01
-4.67
-8.72
-13.33
-18.54
-24.27
-30.39
-36.73
-43.08
-49.19
-54.76
-59.39
-62.57
-63.75
-62.38
-58.09
-50.89
-41.18
-29.77
-17.71
-6.04
4.38
13.0
19.69
24.65
28.25
30.88
32.82
34.13
34.79
34.83
34.41
33.81
33.28
32.94
32.82
32.81
32.85
32.91
33.0
33.06
33.0
32.61
31.69
30.16
28.0
25.31
22.22
18.76
14.88
10.53
5.71
0.57
-4.49
-9.01
-12.62
-15.24
-17.25
-19.33
-22.19
-26.22
-31.39
-37.26
-43.19
-48.54
-52.75
-55.35
-55.93
-54.21
-50.15
-44.07
-36.58
-28.43
-20.28
-12.52
-5.28
1.4
7.46
12.67
16.75
19.45
20.75
20.84
20.13
19.12
18.26
17.91
18.24
19.21
20.63
22.19
23.57
24.5
24.87
24.65
23.92
22.88
21.72
20.64
19.7
18.85
17.9
16.61
14.85
12.63
10.09
7.46
4.86
2.3
-0.33
-3.09
-5.97
-8.84
-11.55
-14.04
-16.37
-18.7
-21.16
-23.84
-26.75
-29.87
-33.22
-36.8
-40.57
-44.35
-47.71
-50.03
-50.65
-49.06
-45.15
-39.29
-32.21
-24.76
-17.57
-10.98
-4.99
0.44
5.29
9.36
12.38
14.23
14.99
15.03
14.8
14.68
14.84
15.32
16.01
16.85
17.77
18.7
19.55
20.18
20.42
20.22
19.61
18.75
17.8
16.91
16.07
15.23
14.28
13.14
11.81
10.26
8.49
6.46
4.12
1.47
-1.38
-4.25
-6.97
-9.42
-11.63
-13.71
-15.83
-18.11
-20.66
-23.5
-26.6
-29.9
-33.32
-36.83
-40.43
-44.09
-47.65
-50.75
-52.88
-53.47
-52.15
-48.83
-43.76
-37.34
-30.05
-22.3
-14.47
-6.97
-0.26
5.24
9.3
11.95
13.43
14.14
14.46
14.69
14.95
15.31
15.72
16.11
16.42
16.66
16.9
17.33
18.05
19.07
20.23
21.24
21.82
21.74
20.96
19.56
17.72
15.65
13.55
11.6
9.89
8.38
6.9
5.22
3.09
0.42
-2.69
-5.97
-9.13
-11.96
-14.48
-16.9
-19.45
-22.33
-25.53
-28.91
-32.34
-35.76
-39.11
-42.3
-44.95
-46.47
-46.16
-43.55
-38.62
-31.86
-24.13
-16.28
-8.9
-2.25
3.63
8.71
12.84
15.84
17.57
18.16
17.97
17.39
16.77
16.21
15.67
15.11
14.64
14.54
15.09
16.4
18.19
19.9
20.88
20.69
19.34
17.29
15.26
13.8
13.05
12.6
11.69
9.61
6.07
1.42
-3.5
-7.77
-10.83
-12.74
-14.24
-16.29
-19.67
-24.52
-30.26
-35.8
-40.0
-42.11
-42.1
-40.5
-38.15
-35.62
-32.92
-29.3
-23.64
-14.95
-2.94
11.58
26.84
40.39
49.47
51.49
44.84
29.9
9.8
-9.58
-21.3
-19.9
-3.94
23.0
53.64
79.99
96.53
101.93
98.6
90.63
81.55
73.11
65.49
58.15
50.67
42.99
35.14
27.06
18.65
9.97
1.33
-6.82
-14.06
-20.23
-25.35
-29.51
-32.74
-35.09
-36.82
-38.53
-41.05
-45.13
-51.09
-58.53
-66.38
-73.14
-77.45
-78.42
-75.95
-70.58
-63.11
-54.22
-44.33
-33.82
-23.36
-13.98
-6.87
-2.8
-1.65
-2.5
-4.14
-5.81
-7.62
-10.25
-14.1
-18.5
-21.48
-20.53
-13.93
-1.68
14.09
29.92
42.18
48.24
47.05
39.05
25.64
8.73
-9.57
-26.9
-40.9
-49.6
-52.04
-48.81
-41.99
-34.55
-29.21
-27.44
-29.03
-32.34
-35.11
-35.43
-32.4
-26.26
-18.07
-9.2
-0.73
6.76
13.18
18.7
23.23
26.12
26.21
22.07
12.75
-1.65
-19.63
-38.47
-54.99
-66.47
-71.34
-69.24
-60.69
-46.53
-27.63
-5.05
19.83
45.32
70.08
93.97
118.31
145.32
176.62
211.75
247.7
280.01
304.56
319.4
325.22
324.27
318.88
310.26
298.34
282.49
262.62
239.54
214.81
190.17
166.87
145.27
124.72
103.94
81.62
57.18
31.02
4.21
-22.32
-48.36
-74.47
-101.48
-129.77
-158.96
-188.26
-217.17
-245.85
-274.67
-303.24
-329.35
-349.01
-357.55
-351.53
-330.69
-298.27
-259.96
-221.61
-187.03
-156.7
-128.61
-100.17
-70.63
-41.88
-17.41
0.16
11.27
19.43
29.23
43.35
60.63
76.44
84.93
81.75
65.7
38.76
5.05
